# ort(start) =    -8.1790
#   klo  khi step start
#%    4   93    1    4

# Energy[ev]             flux               DELTA(E)           Probability
0.600000           2.24655907          68.8036797         0.326517285632E-01
0.600400           1.99155094          69.1563282         0.287978120771E-01
0.600800           1.81869922          69.5089909         0.261649492418E-01
0.601200           1.74899796          69.8616522         0.250351646550E-01
0.601600           1.79113091          70.2142962         0.255094903232E-01
0.602000           1.94042885          70.5669073         0.274977170118E-01
0.602400           2.17977543          70.9194697         0.307359240176E-01
0.602800           2.48228983          71.2719675         0.348284173686E-01
0.603200           2.81531965          71.6243849         0.393067200703E-01
0.603600           3.14507662          71.9767059         0.436957565869E-01
0.604000           3.44117574          72.3289146         0.475767645765E-01
0.604400           3.68040217          72.6809949         0.506377516455E-01
0.604800           3.84920857          73.0329308         0.527051088911E-01
0.605200           3.94469436          73.3847063         0.537536301997E-01
0.605600           3.97408324          73.7363052         0.538958824800E-01
0.606000           3.95294290          74.0877115         0.533549062753E-01
0.606400           3.90254144          74.4389088         0.524260968587E-01
0.606800           3.84679026          74.7898811         0.514346353367E-01
0.607200           3.80918926          75.1406120         0.506941474344E-01
0.607600           3.81009281          75.4910854         0.504707647635E-01
0.608000           3.86449135          75.8412849         0.509549825282E-01
0.608400           3.98039269          76.1911943         0.522421617453E-01
0.608800           4.15781613          76.5407971         0.543215681449E-01
0.609200           4.38839226          76.8900771         0.570735838915E-01
0.609600           4.65558352          77.2390178         0.602750222819E-01
0.610000           4.93557788          77.5876029         0.636129703930E-01
0.610400           5.19893070          77.9358159         0.667078498280E-01
0.610800           5.41300473          78.2836404         0.691460528425E-01
0.611200           5.54517264          78.6310599         0.705214026846E-01
0.611600           5.56660210          78.9780581         0.704828940856E-01
0.612000           5.45626896          79.3246184         0.687840556009E-01
0.612400           5.20468121          79.6707242         0.653273992126E-01
0.612800           4.81669686          80.0163593         0.601964011967E-01
0.613200           4.31282516          80.3615069         0.536677985537E-01
0.613600           3.72853778          80.7061507         0.461989296709E-01
0.614000           3.11138018          81.0502740         0.383882746689E-01
0.614400           2.51602739          81.3938604         0.309117588970E-01
0.614800           1.99781070          81.7368934         0.244419699936E-01
0.615200           1.60557567          82.0793564         0.195612605153E-01
0.615600           1.37494146          82.4212329         0.166818842218E-01
0.616000           1.32306090          82.7625063         0.159862352412E-01
0.616400           1.44580757          83.1031602         0.173977447183E-01
0.616800           1.71795792          83.4431781         0.205883568260E-01
0.617200           2.09645142          83.7825433         0.250225326319E-01
0.617600           2.52628789          84.1212394         0.300315105208E-01
0.618000           2.94815804          84.4592500         0.349062778224E-01
0.618400           3.30659278          84.7965585         0.389944218928E-01
0.618800           3.55732257          85.1331484         0.417853989628E-01
0.619200           3.67268288          85.4690033         0.429709337164E-01
0.619600           3.64425751          85.8041068         0.424718308584E-01
0.620000           3.48245254          86.1384423         0.404285525035E-01
0.620400           3.21323940          86.4719936         0.371593074498E-01
0.620800           2.87279228          86.8047441         0.330948763997E-01
0.621200           2.50107823          87.1366776         0.287029331893E-01
0.621600           2.13557857          87.4677776         0.244156034046E-01
0.622000           1.80621163          87.7980278         0.205723485869E-01
0.622400           1.53222122          88.1274119         0.173864315706E-01
0.622800           1.32136188          88.4559137         0.149380841196E-01
0.623200           1.17124663          88.7835168         0.131921630852E-01
0.623600           1.07231919          89.1102051         0.120336295230E-01
0.624000           1.01165083          89.4359623         0.113114546266E-01
0.624400          0.976684579          89.7607722         0.108809734508E-01
0.624800          0.958159661          90.0846188         0.106362181899E-01
0.625200          0.951708060          90.4074859         0.105268723056E-01
0.625600          0.957956313          90.7293575         0.105583940986E-01
0.626000          0.981307569          91.0502175         0.107776521128E-01
0.626400           1.02784755          91.3700500         0.112492830363E-01
0.626800           1.10296058          91.6888389         0.120293876208E-01
0.627200           1.20923861          92.0065684         0.131429596041E-01
0.627600           1.34513267          92.3232226         0.145698193490E-01
0.628000           1.50457651          92.6387856         0.162413237303E-01
0.628400           1.67756692          92.9532418         0.180474278278E-01
0.628800           1.85147613          93.2665752         0.198514432905E-01
0.629200           2.01274409          93.5787704         0.215085545760E-01
0.629600           2.14857586          93.8898115         0.228840150636E-01
0.630000           2.24834255          94.1996837         0.238678354509E-01
0.630400           2.30452285          94.5083858         0.243843213349E-01
0.630800           2.31317811          94.8160204         0.243964901215E-01
0.631200           2.27407968          95.1226798         0.239068083988E-01
0.631600           2.19066650          95.4277206         0.229562907492E-01
0.632000           2.06998974          95.7315076         0.216228678768E-01
0.632400           1.92271148          96.0340343         0.200211466247E-01
0.632800           1.76309866          96.3352840         0.183016916661E-01
0.633200           1.60883811          96.6352413         0.166485651732E-01
0.633600           1.48043739          96.9338912         0.152726500071E-01
0.634000           1.40000026          97.2312187         0.143986703331E-01
0.634400           1.38928070          97.5272087         0.142450575431E-01
0.634800           1.46710510          97.8218465         0.149977244138E-01
0.635200           1.64646368          98.1151172         0.167809378299E-01
0.635600           1.93175247          98.4070060         0.196302330941E-01
0.636000           2.31674027          98.6974983         0.234731407912E-01
0.636400           2.78380330          98.9865795         0.281230376772E-01
0.636800           3.30480164          99.2742350         0.332896208312E-01
0.637200           3.84369160          99.5604504         0.386066111939E-01
0.637600           4.36062821          99.8452112         0.436738843954E-01
0.638000           4.81698643          100.128503         0.481080439117E-01
0.638400           5.18049340          100.410312         0.515932406383E-01
0.638800           5.42957856          100.690624         0.539233778429E-01
0.639200           5.55614313          100.969424         0.550279765801E-01
0.639600           5.56621697          101.246700         0.549767744726E-01
0.640000           5.47836071          101.522436         0.539620692663E-01
0.640400           5.32010491          101.796619         0.522620985035E-01
0.640800           5.12310620          102.069235         0.501924621265E-01
0.641200           4.91795502          102.340271         0.480549346920E-01
0.641600           4.72963537          102.609712         0.460934472793E-01
0.642000           4.57449347          102.877547         0.444654214758E-01
0.642400           4.45924791          103.143760         0.432333271059E-01
0.642800           4.38213615          103.408339         0.423770092755E-01
0.643200           4.33583488          103.671271         0.418229162507E-01
0.643600           4.31141405          103.932542         0.414828114920E-01
0.644000           4.30236849          104.192140         0.412926396861E-01
0.644400           4.30776559          104.450051         0.412423503394E-01
0.644800           4.33375317          104.706263         0.413896271015E-01
0.645200           4.39304339          104.960762         0.418541490480E-01
0.645600           4.50244598          105.213537         0.427934094197E-01
0.646000           4.67896451          105.464575         0.443652716295E-01
0.646400           4.93529884          105.713863         0.466854460947E-01
0.646800           5.27574118          105.961389         0.497892793662E-01
0.647200           5.69338394          106.207140         0.536064141886E-01
0.647600           6.16928974          106.451105         0.579542103739E-01
0.648000           6.67386842          106.693271         0.625519147088E-01
0.648400           7.17025207          106.933627         0.670532950081E-01
0.648800           7.61905473          107.172161         0.710917336593E-01
0.649200           7.98363529          107.408861         0.743293918293E-01
0.649600           8.23490315          107.643715         0.765014769188E-01
0.650000           8.35482849          107.876711         0.774479345467E-01
0.650400           8.33810836          108.107840         0.771276937907E-01
0.650800           8.19182791          108.337088         0.756142522841E-01
0.651200           7.93335427          108.564445         0.730750683484E-01
0.651600           7.58702237          108.789901         0.697401351043E-01
0.652000           7.18035156          109.013443         0.658666617126E-01
0.652400           6.74053841          109.235061         0.617067299074E-01
0.652800           6.29181537          109.454745         0.574832584132E-01
0.653200           5.85399409          109.672483         0.533770543814E-01
0.653600           5.44219772          109.888266         0.495248303926E-01
0.654000           5.06750682          110.102082         0.460255312750E-01
0.654400           4.73806362          110.313922         0.429507312286E-01
0.654800           4.46013702          110.523776         0.403545481001E-01
0.655200           4.23874771          110.731633         0.382794655219E-01
0.655600           4.07765422          110.937483         0.367563253273E-01
0.656000           3.97874777          111.141317         0.357989977680E-01
0.656400           3.94112602          111.343125         0.353962223326E-01
0.656800           3.96025119          111.542898         0.355042880361E-01
0.657200           4.02760853          111.740626         0.360442631440E-01
0.657600           4.13116254          111.936300         0.369063704241E-01
0.658000           4.25668976          112.129910         0.379621259019E-01
0.658400           4.38980799          112.321448         0.390825445483E-01
0.658800           4.51829126          112.510905         0.401586963960E-01
0.659200           4.63412407          112.698271         0.411197441833E-01
0.659600           4.73475040          112.883538         0.419436745439E-01
0.660000           4.82312099          113.066699         0.426573079433E-01
0.660400           4.90640922          113.247743         0.433245651026E-01
0.660800           4.99358979          113.426664         0.440248318556E-01
0.661200           5.09237749          113.603452         0.448259045844E-01
0.661600           5.20622846          113.778100         0.457577378960E-01
0.662000           5.33215477          113.950599         0.467935649362E-01
0.662400           5.45997304          114.120943         0.478437426677E-01
0.662800           5.57331866          114.289124         0.487650835252E-01
0.663200           5.65236718          114.455133         0.493850038715E-01
0.663600           5.67780022          114.618964         0.495363073647E-01
0.664000           5.63522771          114.780609         0.490956422877E-01
0.664400           5.51911230          114.940061         0.480173077978E-01
0.664800           5.33528076          115.097314         0.463545202137E-01
0.665200           5.10135482          115.252360         0.442624761052E-01
0.665600           4.84484226          115.405193         0.419811461994E-01
0.666000           4.59911645          115.555805         0.397999601710E-01
0.666400           4.39797280          115.704192         0.380104880443E-01
0.666800           4.26978195          115.850346         0.368560138729E-01
0.667200           4.23238551          115.994261         0.364878871758E-01
0.667600           4.28976666          116.135931         0.369374630030E-01
0.668000           4.43119372          116.275351         0.381094848367E-01
0.668400           4.63304608          116.412514         0.397985226614E-01
0.668800           4.86299191          116.547415         0.417254376575E-01
0.669200           5.08570873          116.680049         0.435867895354E-01
0.669600           5.26902557          116.810409         0.451075002379E-01
0.670000           5.38928563          116.938492         0.460864984484E-01
0.670400           5.43489945          117.064291         0.464266207105E-01
0.670800           5.40744397          117.187803         0.461434027423E-01
0.671200           5.32017934          117.309021         0.453518348204E-01
0.671600           5.19439241          117.427942         0.442347223799E-01
0.672000           5.05441720          117.544561         0.430000093286E-01
0.672400           4.92243549          117.658873         0.418365003991E-01
0.672800           4.81417138          117.770875         0.408774358315E-01
0.673200           4.73636494          117.880562         0.401793550389E-01
0.673600           4.68649315          117.987930         0.397201065090E-01
0.674000           4.65469664          118.092976         0.394155249796E-01
0.674400           4.62738090          118.195696         0.391501643242E-01
0.674800           4.59159720          118.296085         0.388144475450E-01
0.675200           4.53915084          118.394142         0.383393194247E-01
0.675600           4.46946288          118.489863         0.377202132250E-01
0.676000           4.39050619          118.583244         0.370246761251E-01
0.676400           4.31757801          118.674282         0.363817495532E-01
0.676800           4.27016107          118.762975         0.359553223824E-01
0.677200           4.26755259          118.849321         0.359072526946E-01
0.677600           4.32421435          118.933315         0.363583099551E-01
0.678000           4.44585764          119.014957         0.373554529963E-01
0.678400           4.62711673          119.094244         0.388525639311E-01
0.678800           4.85132126          119.171173         0.407088486499E-01
0.679200           5.09243248          119.245743         0.427053606689E-01
0.679600           5.31875822          119.317952         0.445763451593E-01
0.680000           5.49770665          119.387798         0.460491501443E-01
0.680400           5.60065181          119.455280         0.468849247981E-01
0.680800           5.60700040          119.520396         0.469124986790E-01
0.681200           5.50675621          119.583144         0.460496021225E-01
0.681600           5.30122373          119.643525         0.443084884869E-01
0.682000           5.00189150          119.701536         0.417863603644E-01
0.682400           4.62789894          119.757176         0.386440218827E-01
0.682800           4.20273753          119.810446         0.350782228427E-01
0.683200           3.75092016          119.861345         0.312938268040E-01
0.683600           3.29526251          119.909871         0.274811612381E-01
0.684000           2.85518981          119.956026         0.238019707498E-01
0.684400           2.44617619          119.999807         0.203848342851E-01
0.684800           2.08012101          120.041217         0.173283899268E-01
0.685200           1.76624408          120.080254         0.147088635620E-01
0.685600           1.51199077          120.116926         0.125876578656E-01
0.686000           1.32349881          120.151134         0.110152835204E-01
0.686400           1.20536807          120.183058         0.100294342243E-01
0.686800           1.15974093          120.212604         0.964741543300E-02
0.687200           1.18496829          120.239781         0.985504369444E-02
0.687600           1.27433234          120.264588         0.105960728645E-01
0.688000           1.41536345          120.287028         0.117665509931E-01
0.688400           1.59020167          120.307102         0.132178537361E-01
0.688800           1.77722711          120.324810         0.147702465568E-01
0.689200           1.95386902          120.340154         0.162362183265E-01
0.689600           2.10017625          120.353136         0.174501165219E-01
0.690000           2.20247417          120.363758         0.182984828855E-01
0.690400           2.25631505          120.372021         0.187445140766E-01
0.690800           2.26799005          120.377928         0.188405805742E-01
0.691200           2.25410929          120.381480         0.187247182026E-01
0.691600           2.23913019          120.382680         0.186001024649E-01
0.692000           2.25114567          120.381531         0.187000917380E-01
0.692400           2.31663979          120.378034         0.192447053718E-01
0.692800           2.45518838          120.372192         0.203966409457E-01
0.693200           2.67516042          120.364009         0.222255842591E-01
0.693600           2.97133573          120.353487         0.246884058328E-01
0.694000           3.32501562          120.340629         0.276300335770E-01
0.694400           3.70672947          120.325439         0.308058670956E-01
0.694800           4.08112539          120.307919         0.339223338766E-01
0.695200           4.41318340          120.288073         0.366884535974E-01
0.695600           4.67459812          120.265905         0.388688556222E-01
0.696000           4.84910933          120.241419         0.403281113417E-01
0.696400           4.93572999          120.214618         0.410576523566E-01
0.696800           4.94920277          120.185506         0.411796974853E-01
0.697200           4.91753435          120.154087         0.409269003402E-01
0.697600           4.87700901          120.120366         0.406010169803E-01
0.698000           4.86556331          120.084346         0.405178814142E-01
0.698400           4.91571567          120.046033         0.409485889774E-01
0.698800           5.04833143          120.005431         0.420675248050E-01
0.699200           5.26834848          119.962544         0.439166119645E-01
0.699600           5.56322608          119.917377         0.463921594956E-01
0.700000           5.90438120          119.869935         0.492565644591E-01
0.700400           6.25134085          119.820224         0.521726686373E-01
0.700800           6.55786663          119.768248         0.547546342046E-01
0.701200           6.77898562          119.714013         0.566265003088E-01
0.701600           6.87774305          119.657525         0.574785670831E-01
0.702000           6.83059011          119.598787         0.571125365164E-01
0.702400           6.63060492          119.537807         0.554686843922E-01
