# ort(start) =    -8.1790
#   klo  khi step start
#%    4  326    1    4

# Energy[ev]             flux               DELTA(E)           Probability
0.750000E-01      0.866255568          339.178045         0.255398478885E-02
0.750500E-01      0.811039020          339.260098         0.239061128741E-02
0.751000E-01      0.818575074          339.341249         0.241224748354E-02
0.751500E-01      0.892784714          339.421498         0.263031281222E-02
0.752000E-01       1.03448916          339.500844         0.304708861531E-02
0.752500E-01       1.24121994          339.579290         0.365516972004E-02
0.753000E-01       1.50717645          339.656834         0.443735058241E-02
0.753500E-01       1.82334017          339.733477         0.536697231684E-02
0.754000E-01       2.17774801          339.809220         0.640873725384E-02
0.754500E-01       2.55592028          339.884063         0.751997683083E-02
0.755000E-01       2.94143141          339.958006         0.865233751633E-02
0.755500E-01       3.31660472          340.031050         0.975382903206E-02
0.756000E-01       3.66330603          340.103194         0.107711603123E-01
0.756500E-01       3.96380522          340.174441         0.116522723326E-01
0.757000E-01       4.20167064          340.244789         0.123489639752E-01
0.757500E-01       4.36265777          340.314239         0.128194981898E-01
0.758000E-01       4.43555247          340.382792         0.130310713972E-01
0.758500E-01       4.41292884          340.450448         0.129620297544E-01
0.759000E-01       4.29178412          340.517208         0.126037216913E-01
0.759500E-01       4.07401622          340.583072         0.119618869974E-01
0.760000E-01       3.76671514          340.648039         0.110574983766E-01
0.760500E-01       3.38224617          340.712112         0.992699129835E-02
0.761000E-01       2.93811051          340.775290         0.862184143165E-02
0.761500E-01       2.45657831          340.837574         0.720747505995E-02
0.762000E-01       1.96409811          340.898963         0.576152560089E-02
0.762500E-01       1.49049662          340.959460         0.437147754487E-02
0.763000E-01       1.06799211          341.019063         0.313176658444E-02
0.763500E-01      0.730053177          341.077774         0.214043022386E-02
0.764000E-01      0.510142892          341.135593         0.149542558021E-02
0.764500E-01      0.440394027          341.192521         0.129074935736E-02
0.765000E-01      0.550266092          341.248557         0.161250818734E-02
0.765500E-01      0.865237304          341.303703         0.253509497766E-02
0.766000E-01       1.40558512          341.357959         0.411762809682E-02
0.766500E-01       2.18530730          341.411326         0.640080494779E-02
0.767000E-01       3.21123138          341.463803         0.940430976884E-02
0.767500E-01       4.48235459          341.515393         0.131248976862E-01
0.768000E-01       5.98944812          341.566094         0.175352537179E-01
0.768500E-01       7.71495030          341.615908         0.225836974368E-01
0.769000E-01       9.63316225          341.664835         0.281947723975E-01
0.769500E-01       11.7107481          341.712875         0.342707254683E-01
0.770000E-01       13.9075301          341.760030         0.406938462253E-01
0.770500E-01       16.1775561          341.806300         0.473296020229E-01
0.771000E-01       18.4704078          341.851685         0.540304716707E-01
0.771500E-01       20.7327048          341.896186         0.606403512215E-01
0.772000E-01       22.9097550          341.939804         0.669993804906E-01
0.772500E-01       24.9472909          341.982538         0.729490196703E-01
0.773000E-01       26.7932306          342.024390         0.783371926745E-01
0.773500E-01       28.3993979          342.065361         0.830233082662E-01
0.774000E-01       29.7231382          342.105450         0.868829719042E-01
0.774500E-01       30.7287682          342.144659         0.898122106313E-01
0.775000E-01       31.3888048          342.182988         0.917310499021E-01
0.775500E-01       31.6849256          342.220438         0.925863044231E-01
0.776000E-01       31.6086237          342.257008         0.923534739638E-01
0.776500E-01       31.1615295          342.292701         0.910376685566E-01
0.777000E-01       30.3553873          342.327517         0.886735242049E-01
0.777500E-01       29.2116860          342.361455         0.853241086812E-01
0.778000E-01       27.7609556          342.394517         0.810788556500E-01
0.778500E-01       26.0417572          342.426704         0.760506026114E-01
0.779000E-01       24.0994016          342.458016         0.703718425045E-01
0.779500E-01       21.9844464          342.488454         0.641903288076E-01
0.780000E-01       19.7510269          342.518018         0.576641983934E-01
0.780500E-01       17.4550822          342.546709         0.509567942363E-01
0.781000E-01       15.1525443          342.574528         0.442313805892E-01
0.781500E-01       12.8975566          342.601475         0.376459460303E-01
0.782000E-01       10.7407860          342.627552         0.313482847306E-01
0.782500E-01       8.72789125          342.652758         0.254715336416E-01
0.783000E-01       6.89820081          342.677095         0.201303236122E-01
0.783500E-01       5.28364643          342.700563         0.154176765602E-01
0.784000E-01       3.90798650          342.723163         0.114027498673E-01
0.784500E-01       2.78634272          342.744895         0.812949445537E-02
0.785000E-01       1.92506027          342.765761         0.561625601767E-02
0.785500E-01       1.32188856          342.785761         0.385631118093E-02
0.786000E-01      0.966467633          342.804896         0.281929355707E-02
0.786500E-01      0.841092719          342.823166         0.245343023280E-02
0.787000E-01      0.921719565          342.840572         0.268847866908E-02
0.787500E-01       1.17916396          342.857116         0.343922847831E-02
0.788000E-01       1.58044237          342.872797         0.460941312865E-02
0.788500E-01       2.09019629          342.887616         0.609586402834E-02
0.789000E-01       2.67214080          342.901575         0.779273410294E-02
0.789500E-01       3.29047891          342.914674         0.959562000660E-02
0.790000E-01       3.91122593          342.926914         0.114054212956E-01
0.790500E-01       4.50339392          342.938295         0.131317907163E-01
0.791000E-01       5.03999347          342.948818         0.146960514166E-01
0.791500E-01       5.49881915          342.958485         0.160334833257E-01
0.792000E-01       5.86299536          342.967295         0.170949109196E-01
0.792500E-01       6.12127023          342.975251         0.178475567063E-01
0.793000E-01       6.26805651          342.982351         0.182751575771E-01
0.793500E-01       6.30322947          342.988598         0.183773731976E-01
0.794000E-01       6.23170193          342.993992         0.181685454626E-01
0.794500E-01       6.06280586          342.998534         0.176758944127E-01
0.795000E-01       5.80951710          343.002224         0.169372578130E-01
0.795500E-01       5.48756581          343.005064         0.159984979363E-01
0.796000E-01       5.11447850          343.007054         0.149107093679E-01
0.796500E-01       4.70859888          343.008196         0.137273655241E-01
0.797000E-01       4.28813402          343.008490         0.125015390298E-01
0.797500E-01       3.87026913          343.007936         0.112833223981E-01
0.798000E-01       3.47038960          343.006536         0.101175611530E-01
0.798500E-01       3.10144220          343.004291         0.904199242687E-02
0.799000E-01       2.77345940          343.001201         0.808585916660E-02
0.799500E-01       2.49326241          342.997267         0.726904455387E-02
0.800000E-01       2.26434874          342.992490         0.660174436719E-02
0.800500E-01       2.08696127          342.986872         0.608466808383E-02
0.801000E-01       1.95832686          342.980412         0.570973383545E-02
0.801500E-01       1.87304445          342.973112         0.546119909013E-02
0.802000E-01       1.82359593          342.964972         0.531714920303E-02
0.802500E-01       1.80094788          342.955994         0.525125063311E-02
0.803000E-01       1.79520847          342.946179         0.523466531400E-02
0.803500E-01       1.79630239          342.935527         0.523801778651E-02
0.804000E-01       1.79462690          342.924039         0.523330737147E-02
0.804500E-01       1.78165397          342.911716         0.519566373525E-02
0.805000E-01       1.75044751          342.898559         0.510485526438E-02
0.805500E-01       1.69606997          342.884569         0.494647507130E-02
0.806000E-01       1.61585883          342.869747         0.471274834650E-02
0.806500E-01       1.50956125          342.854093         0.440292614266E-02
0.807000E-01       1.37932258          342.837610         0.402325340346E-02
0.807500E-01       1.22953252          342.820296         0.358652196371E-02
0.808000E-01       1.06654018          342.802155         0.311124118637E-02
0.808500E-01      0.898256060          342.783186         0.262047876571E-02
0.809000E-01      0.733664827          342.763391         0.214044103654E-02
0.809500E-01      0.582277146          342.742769         0.169887507018E-02
0.810000E-01      0.453551676          342.721324         0.132338330032E-02
0.810500E-01      0.356319637          342.699054         0.103974502739E-02
0.811000E-01      0.298243833          342.675962         0.870337769949E-03
0.811500E-01      0.285341845          342.652048         0.832745191278E-03
0.812000E-01      0.321599452          342.627313         0.938627598483E-03
0.812500E-01      0.408695251          342.601759         0.119291638370E-02
0.813000E-01      0.545851411          342.575386         0.159337604029E-02
0.813500E-01      0.729818618          342.548194         0.213055747973E-02
0.814000E-01      0.954996062          342.520186         0.278814534106E-02
0.814500E-01       1.21368011          342.491363         0.354368091649E-02
0.815000E-01       1.49642839          342.461724         0.436962230552E-02
0.815500E-01       1.79252000          342.431271         0.523468548277E-02
0.816000E-01       2.09048730          342.400006         0.610539504286E-02
0.816500E-01       2.37869096          342.367929         0.694776222927E-02
0.817000E-01       2.64590788          342.335040         0.772900103132E-02
0.817500E-01       2.88190038          342.301343         0.841919098877E-02
0.818000E-01       3.07793651          342.266836         0.899279798231E-02
0.818500E-01       3.22723352          342.231521         0.942997157115E-02
0.819000E-01       3.32530057          342.195400         0.971754899222E-02
0.819500E-01       3.37016213          342.158473         0.984971116368E-02
0.820000E-01       3.36244960          342.120742         0.982825416190E-02
0.820500E-01       3.30535555          342.082207         0.966245973509E-02
0.821000E-01       3.20445237          342.042869         0.936856945104E-02
0.821500E-01       3.06738417          342.002730         0.896888797280E-02
0.822000E-01       2.90344731          341.961790         0.849056063999E-02
0.822500E-01       2.72308137          341.920051         0.796408799236E-02
0.823000E-01       2.53729668          341.877513         0.742165419894E-02
0.823500E-01       2.35706863          341.834179         0.689535680388E-02
0.824000E-01       2.19273054          341.790048         0.641543121085E-02
0.824500E-01       2.05339763          341.745122         0.600856456841E-02
0.825000E-01       1.94645309          341.699402         0.569639009252E-02
0.825500E-01       1.87712451          341.652889         0.549424451914E-02
0.826000E-01       1.84817458          341.605584         0.541025870500E-02
0.826500E-01       1.85972416          341.557488         0.544483499511E-02
0.827000E-01       1.90921943          341.508602         0.559054564680E-02
0.827500E-01       1.99154735          341.458928         0.583246528976E-02
0.828000E-01       2.09929614          341.408467         0.614892816224E-02
0.828500E-01       2.22314992          341.357219         0.651267880119E-02
0.829000E-01       2.35239960          341.305185         0.689236408444E-02
0.829500E-01       2.47554571          341.252368         0.725429607513E-02
0.830000E-01       2.58096394          341.198767         0.756439994650E-02
0.830500E-01       2.65760010          341.144385         0.779025015634E-02
0.831000E-01       2.69565936          341.089222         0.790309159103E-02
0.831500E-01       2.68725390          341.033279         0.787974098054E-02
0.832000E-01       2.62697465          340.976557         0.770426762595E-02
0.832500E-01       2.51235570          340.919058         0.736936125956E-02
0.833000E-01       2.34420469          340.860783         0.687730830442E-02
0.833500E-01       2.12677843          340.801732         0.624051531966E-02
0.834000E-01       1.86779013          340.741908         0.548153920847E-02
0.834500E-01       1.57824258          340.681310         0.463260686527E-02
0.835000E-01       1.27208988          340.619941         0.373463126158E-02
0.835500E-01      0.965738615          340.557802         0.283575536818E-02
0.836000E-01      0.677407309          340.494893         0.198947861779E-02
0.836500E-01      0.426370253          340.431215         0.125244170871E-02
0.837000E-01      0.232117683          340.366771         0.681963408107E-03
0.837500E-01      0.113469049          340.301561         0.333436756476E-03
0.838000E-01      0.876790533E-01      340.235586         0.257701007679E-03
0.838500E-01      0.169577332          340.168847         0.498509293146E-03
0.839000E-01      0.370781939          340.101346         0.109021014656E-02
0.839500E-01      0.699024270          340.033084         0.205575369705E-02
0.840000E-01       1.15761871          339.964062         0.340512081960E-02
0.840500E-01       1.74510437          339.894281         0.513425634971E-02
0.841000E-01       2.45507918          339.823743         0.722456637268E-02
0.841500E-01       3.27623813          339.752448         0.964301551938E-02
0.842000E-01       4.19261883          339.680397         0.123428342141E-01
0.842500E-01       5.18404847          339.607593         0.152648190938E-01
0.843000E-01       6.22677701          339.534036         0.183391835571E-01
0.843500E-01       7.29427355          339.459727         0.214878907956E-01
0.844000E-01       8.35815512          339.384668         0.246273798256E-01
0.844500E-01       9.38921122          339.308860         0.276715769678E-01
0.845000E-01       10.3584827          339.232303         0.305350717485E-01
0.845500E-01       11.2383513          339.155000         0.331363279234E-01
0.846000E-01       12.0035945          339.076951         0.354007976534E-01
0.846500E-01       12.6323629          338.998159         0.372638099151E-01
0.847000E-01       13.1070381          338.918622         0.386731128817E-01
0.847500E-01       13.4149367          338.838345         0.395909638909E-01
0.848000E-01       13.5488293          338.757326         0.399956791168E-01
0.848500E-01       13.5072545          338.675568         0.398825773620E-01
0.849000E-01       13.2946124          338.593072         0.392642775110E-01
0.849500E-01       12.9210343          338.509839         0.381703360289E-01
0.850000E-01       12.4020351          338.425871         0.366462382759E-01
0.850500E-01       11.7579592          338.341168         0.347517841418E-01
0.851000E-01       11.0132459          338.255732         0.325589334313E-01
0.851500E-01       10.1955413          338.169564         0.301491984737E-01
0.852000E-01       9.33469555          338.082665         0.276106896490E-01
0.852500E-01       8.46168318          337.995038         0.250349331652E-01
0.853000E-01       7.60749212          337.906682         0.225135889143E-01
0.853500E-01       6.80202467          337.817599         0.201351992702E-01
0.854000E-01       6.07305395          337.727791         0.179820971769E-01
0.854500E-01       5.44527661          337.637258         0.161275939777E-01
0.855000E-01       4.93949784          337.546002         0.146335545487E-01
0.855500E-01       4.57197900          337.454025         0.135484500335E-01
0.856000E-01       4.35397100          337.361327         0.129059576300E-01
0.856500E-01       4.29144863          337.267911         0.127241533874E-01
0.857000E-01       4.38505247          337.173776         0.130053188840E-01
0.857500E-01       4.63023647          337.078925         0.137363570706E-01
0.858000E-01       5.01761062          336.983358         0.148897875873E-01
0.858500E-01       5.53346072          336.887077         0.164252685566E-01
0.859000E-01       6.16041980          336.790084         0.182915711919E-01
0.859500E-01       6.87826047          336.692380         0.204289163899E-01
0.860000E-01       7.66477285          336.593965         0.227715694622E-01
0.860500E-01       8.49669018          336.494842         0.252505807971E-01
0.861000E-01       9.35062302          336.395011         0.277965567959E-01
0.861500E-01       10.2039636          336.294474         0.303423469514E-01
0.862000E-01       11.0357241          336.193232         0.328255392627E-01
0.862500E-01       11.8272765          336.091286         0.351906669454E-01
0.863000E-01       12.5629660          335.988639         0.373910440310E-01
0.863500E-01       13.2305771          335.885290         0.393901652526E-01
0.864000E-01       13.8216376          335.781242         0.411626257373E-01
0.864500E-01       14.3315528          335.676496         0.426945375566E-01
0.865000E-01       14.7595700          335.571053         0.439834421564E-01
0.865500E-01       15.1085813          335.464915         0.450377391487E-01
0.866000E-01       15.3847773          335.358082         0.458756719691E-01
0.866500E-01       15.5971730          335.250556         0.465239286732E-01
0.867000E-01       15.7570291          335.142339         0.470159309364E-01
0.867500E-01       15.8771993          335.033431         0.473898955739E-01
0.868000E-01       15.9714326          334.923835         0.476867602209E-01
0.868500E-01       16.0536629          334.813551         0.479480679737E-01
0.869000E-01       16.1373184          334.702581         0.482139047843E-01
0.869500E-01       16.2346791          334.590926         0.485209783569E-01
0.870000E-01       16.3563102          334.478588         0.489009185539E-01
0.870500E-01       16.5105930          334.365567         0.493788673502E-01
0.871000E-01       16.7033719          334.251866         0.499724117900E-01
0.871500E-01       16.9377288          334.137486         0.506908968979E-01
0.872000E-01       17.2138918          334.022427         0.515351378452E-01
0.872500E-01       17.5292775          333.906692         0.524975326720E-01
0.873000E-01       17.8786618          333.790282         0.535625593000E-01
0.873500E-01       18.2544679          333.673197         0.547076241927E-01
0.874000E-01       18.6471552          333.555440         0.559042155076E-01
0.874500E-01       19.0456892          333.437012         0.571193015083E-01
0.875000E-01       19.4380694          333.317914         0.583169058259E-01
0.875500E-01       19.8118903          333.198148         0.594597851907E-01
0.876000E-01       20.1549098          333.077714         0.605111326734E-01
0.876500E-01       20.4555993          332.956615         0.614362302839E-01
0.877000E-01       20.7036521          332.834852         0.622039788719E-01
0.877500E-01       20.8904278          332.712426         0.627882403660E-01
0.878000E-01       21.0093150          332.589338         0.631689371118E-01
