# ort(start) =    -8.1790
#   klo  khi step start
#%    4  344    1    4

# Energy[ev]             flux               DELTA(E)           Probability
0.650000E-01       1.43487406          218.736313         0.655983471004E-02
0.651700E-01       2.39635904          219.891281         0.108979265956E-01
0.653400E-01       4.10876039          221.042533         0.185880985378E-01
0.655100E-01       6.22229908          222.189993         0.280044073298E-01
0.656800E-01       8.15838188          223.333584         0.365300271548E-01
0.658500E-01       9.31106685          224.473228         0.414796317910E-01
0.660200E-01       9.27561240          225.608850         0.411136902714E-01
0.661900E-01       8.01075825          226.740375         0.353300917632E-01
0.663600E-01       5.86630927          227.867727         0.257443621279E-01
0.665300E-01       3.46178997          228.990831         0.151175920710E-01
0.667000E-01       1.46290663          230.109614         0.635743378293E-02
0.668700E-01      0.344418843          231.224001         0.148954624578E-02
0.670400E-01      0.232823840          232.333921         0.100210868713E-02
0.672100E-01      0.888119471          233.439299         0.380449852971E-02
0.673800E-01       1.82606649          234.540065         0.778573370300E-02
0.675500E-01       2.52623613          235.636146         0.107209193738E-01
0.677200E-01       2.64056123          236.727472         0.111544351221E-01
0.678900E-01       2.12351108          237.813972         0.892929484396E-02
0.680600E-01       1.24265891          238.895576         0.520168239837E-02
0.682300E-01      0.478216902          239.972215         0.199280113036E-02
0.684000E-01      0.359620000          241.043821         0.149192789633E-02
0.685700E-01       1.30150170          242.110324         0.537565554440E-02
0.687400E-01       3.48911608          243.171657         0.143483666002E-01
0.689100E-01       6.83538596          244.227753         0.279877526633E-01
0.690800E-01       11.0040944          245.278547         0.448636644578E-01
0.692500E-01       15.4780641          246.323971         0.628362074230E-01
0.694200E-01       19.6499561          247.363960         0.794374254219E-01
0.695900E-01       22.9204893          248.398450         0.922730768561E-01
0.697600E-01       24.7953613          249.427378         0.994091406543E-01
0.699300E-01       24.9723072          250.450678         0.997094814164E-01
0.701000E-01       23.4046414          251.468289         0.930719395239E-01
0.702700E-01       20.3235449          252.480148         0.804956151755E-01
0.704400E-01       16.2048355          253.486194         0.639278817582E-01
0.706100E-01       11.6789736          254.486366         0.458923350311E-01
0.707800E-01       7.40138868          255.480603         0.289704525118E-01
0.709500E-01       3.91567188          256.468846         0.152676316719E-01
0.711200E-01       1.54723776          257.451036         0.600983312397E-02
0.712900E-01      0.356819739          258.427114         0.138073646237E-02
0.714600E-01      0.164575950          259.397022         0.634455817476E-03
0.716300E-01      0.633627421          260.360705         0.243365227386E-02
0.718000E-01       1.38420001          261.318104         0.529699239074E-02
0.719700E-01       2.10170199          262.269165         0.801353064609E-02
0.721400E-01       2.60606633          263.213833         0.990094747727E-02
0.723100E-01       2.86411925          264.152052         0.108426916726E-01
0.724800E-01       2.94733633          265.083770         0.111185091922E-01
0.726500E-01       2.95762535          266.008933         0.111185189225E-01
0.728200E-01       2.95619300          266.927489         0.110748915837E-01
0.729900E-01       2.92889922          267.839387         0.109352819982E-01
0.731600E-01       2.80426473          268.744574         0.104346840559E-01
0.733300E-01       2.51326559          269.643002         0.932071506077E-02
0.735000E-01       2.05570843          270.534621         0.759868892208E-02
0.736700E-01       1.53037059          271.419381         0.563839832899E-02
0.738400E-01       1.10277200          272.297235         0.404988321690E-02
0.740100E-01      0.920014944          273.168135         0.336794385944E-02
0.741800E-01       1.01825906          274.032035         0.371583950661E-02
0.743500E-01       1.28234755          274.888888         0.466496684049E-02
0.745200E-01       1.49530347          275.738648         0.542290128687E-02
0.746900E-01       1.46439163          276.581273         0.529461601341E-02
0.748600E-01       1.15707094          277.416716         0.417087679843E-02
0.750300E-01      0.758704885          278.244936         0.272675181555E-02
0.752000E-01      0.595350228          279.065890         0.213336795877E-02
0.753700E-01      0.940625327          279.879536         0.336082209301E-02
0.755400E-01       1.80655972          280.685833         0.643623407472E-02
0.757100E-01       2.85378939          281.484741         0.101383449289E-01
0.758800E-01       3.51394680          282.276220         0.124486108149E-01
0.760500E-01       3.30619342          283.060231         0.116801763419E-01
0.762200E-01       2.20440145          283.836737         0.776644162975E-02
0.763900E-01      0.844747169          284.605700         0.296813159509E-02
0.765600E-01      0.407083359          285.367083         0.142652528603E-02
0.767300E-01       2.15288380          286.120850         0.752438630141E-02
0.769000E-01       6.79072493          286.866966         0.236720352167E-01
0.770700E-01       13.9672447          287.605397         0.485639172645E-01
0.772400E-01       22.1673926          288.336109         0.768803901527E-01
0.774100E-01       29.1406970          289.059069         0.100812256627    
0.775800E-01       32.7210853          289.774244         0.112919232716    
0.777500E-01       31.6994652          290.481604         0.109127272567    
0.779200E-01       26.3532443          291.181117         0.905046473875E-01
0.780900E-01       18.3750544          291.872753         0.629557033894E-01
0.782600E-01       10.2149649          292.556483         0.349162143740E-01
0.784300E-01       4.12435552          293.232278         0.140651484457E-01
0.786000E-01       1.32761170          293.900111         0.451722081113E-02
0.787700E-01       1.67930914          294.559953         0.570107755844E-02
0.789400E-01       3.92478540          295.211780         0.132948129751E-01
0.791100E-01       6.39419747          295.855565         0.216125644733E-01
0.792800E-01       7.77032971          296.491283         0.262076160750E-01
0.794500E-01       7.56975488          297.118910         0.254771898539E-01
0.796200E-01       6.15480724          297.738423         0.206718608446E-01
0.797900E-01       4.34664285          298.349798         0.145689485266E-01
0.799600E-01       2.90026893          298.953014         0.970142060507E-02
0.801300E-01       2.13577905          299.548049         0.713000487722E-02
0.803000E-01       1.89280869          300.134883         0.630652681347E-02
0.804700E-01       1.77232844          300.713496         0.589374425897E-02
0.806400E-01       1.47169685          301.283868         0.488475156931E-02
0.808100E-01      0.991058083          301.845982         0.328332375676E-02
0.809800E-01      0.595833178          302.399819         0.197034898943E-02
0.811500E-01      0.586462334          302.945363         0.193586832989E-02
0.813200E-01       1.04753909          303.482598         0.345172703990E-02
0.814900E-01       1.75254060          304.011506         0.576471799788E-02
0.816600E-01       2.29096469          304.532075         0.752290113560E-02
0.818300E-01       2.33501516          305.044290         0.765467583955E-02
0.820000E-01       1.86885217          305.548137         0.611639197864E-02
0.821700E-01       1.22390940          306.043603         0.399913408888E-02
0.823400E-01      0.885620500          306.530677         0.288917412551E-02
0.825100E-01       1.18374455          307.009347         0.385572806327E-02
0.826800E-01       2.05842768          307.479602         0.669451784240E-02
0.828500E-01       3.05617158          307.941433         0.992452216945E-02
0.830200E-01       3.57495905          308.394830         0.115921497430E-01
0.831900E-01       3.22614011          308.839786         0.104459990699E-01
0.833600E-01       2.10347967          309.276291         0.680129622804E-02
0.835300E-01      0.794537368          309.704338         0.256547057756E-02
0.837000E-01      0.111975369          310.123922         0.361066531949E-03
0.838700E-01      0.680867331          310.535037         0.219256203128E-02
0.840400E-01       2.60177184          310.937676         0.836750266463E-02
0.842100E-01       5.37088284          311.331837         0.172513125904E-01
0.843800E-01       8.10061624          311.717514         0.259870423187E-01
0.845500E-01       9.92472709          312.094706         0.318003699192E-01
0.847200E-01       10.3794032          312.463408         0.332179798129E-01
0.848900E-01       9.57363294          312.823621         0.306039324106E-01
0.850600E-01       8.08124560          313.175341         0.258042206013E-01
0.852300E-01       6.63375749          313.518570         0.211590576084E-01
0.854000E-01       5.78704887          313.853307         0.184387060576E-01
0.855700E-01       5.72972295          314.179553         0.182370968841E-01
0.857400E-01       6.30788656          314.497309         0.200570446241E-01
0.859100E-01       7.21804910          314.806578         0.229285205593E-01
0.860800E-01       8.23606312          315.107362         0.261373237086E-01
0.862500E-01       9.34698142          315.399665         0.296353562476E-01
0.864200E-01       10.7119151          315.683490         0.339324528844E-01
0.865900E-01       12.5072249          315.958842         0.395849812660E-01
0.867600E-01       14.7418806          316.225727         0.466182202818E-01
0.869300E-01       17.1651710          316.484151         0.542370634916E-01
0.871000E-01       19.3217812          316.734119         0.610031569232E-01
0.872700E-01       20.7294879          316.975639         0.653977318017E-01
0.874400E-01       21.0911091          317.208719         0.664896889414E-01
0.876100E-01       20.4370993          317.433367         0.643823283688E-01
0.877800E-01       19.1307284          317.649592         0.602258868505E-01
0.879500E-01       17.7320069          317.857403         0.557860434641E-01
0.881200E-01       16.7775614          318.056811         0.527502030439E-01
0.882900E-01       16.5663344          318.247826         0.520548233832E-01
0.884600E-01       17.0360837          318.430459         0.535001701012E-01
0.886300E-01       17.7796533          318.604723         0.558047386532E-01
0.888000E-01       18.1984492          318.770629         0.570894791377E-01
0.889700E-01       17.7408857          318.928191         0.556265836597E-01
0.891400E-01       16.1406196          319.077423         0.505852763610E-01
0.893100E-01       13.5636299          319.218337         0.424901339796E-01
0.894800E-01       10.5990322          319.350950         0.331892927098E-01
0.896500E-01       8.08154491          319.475276         0.252963077927E-01
0.898200E-01       6.79842980          319.591331         0.212722597557E-01
0.899900E-01       7.18631157          319.699131         0.224783581682E-01
0.901600E-01       9.13884132          319.798693         0.285768563429E-01
0.903300E-01       12.0117324          319.890035         0.375495673987E-01
0.905000E-01       14.8357785          319.973175         0.463656945076E-01
0.906700E-01       16.6611275          320.048130         0.520581934114E-01
0.908400E-01       16.8969588          320.114920         0.527840400064E-01
0.910100E-01       15.5095377          320.173565         0.484410314905E-01
0.911800E-01       13.0017226          320.224084         0.406019509742E-01
0.913500E-01       10.1914832          320.266497         0.318218836942E-01
0.915200E-01       7.89127326          320.300827         0.246370680331E-01
0.916900E-01       6.62462955          320.327094         0.206808280925E-01
0.918600E-01       6.48731775          320.345319         0.202510146211E-01
0.920300E-01       7.18626700          320.355527         0.224321617518E-01
0.922000E-01       8.21035512          320.357739         0.256287085193E-01
0.923700E-01       9.04151852          320.351979         0.282237011428E-01
0.925400E-01       9.31943827          320.338271         0.290924909701E-01
0.927100E-01       8.91602287          320.316640         0.278350287502E-01
0.928800E-01       7.92623040          320.287109         0.247472663528E-01
0.930500E-01       6.61039492          320.249705         0.206413770766E-01
0.932200E-01       5.32039865          320.204453         0.166156298276E-01
0.933900E-01       4.42097480          320.151378         0.138090137906E-01
0.935600E-01       4.20238227          320.090509         0.131287312577E-01
0.937300E-01       4.78790253          320.021872         0.149611728107E-01
0.939000E-01       6.06439114          319.945494         0.189544508594E-01
0.940700E-01       7.68331660          319.861403         0.240207681599E-01
0.942400E-01       9.16848297          319.769627         0.286721507897E-01
0.944100E-01       10.1185259          319.670196         0.316530162461E-01
0.945800E-01       10.4286148          319.563138         0.326339729284E-01
0.947500E-01       10.4163215          319.448483         0.326072029167E-01
0.949200E-01       10.7554798          319.326261         0.336817890986E-01
0.950900E-01       12.2032722          319.196502         0.382312214152E-01
0.952600E-01       15.2153782          319.059237         0.476882546701E-01
0.954300E-01       19.6235591          318.914497         0.615323520396E-01
0.956000E-01       24.5490786          318.762314         0.770137419668E-01
0.957700E-01       28.6321604          318.602719         0.898679099316E-01
0.959400E-01       30.5108291          318.435744         0.958147120661E-01
0.961100E-01       29.3541640          318.261423         0.922328684801E-01
0.962800E-01       25.2137645          318.079788         0.792686786257E-01
0.964500E-01       19.0300026          317.890872         0.598633189080E-01
0.966200E-01       12.2847656          317.694709         0.386684613807E-01
0.967900E-01       6.45416088          317.491334         0.203286206306E-01
0.969600E-01       2.50239282          317.280780         0.788699784099E-02
0.971300E-01      0.628728525          317.063082         0.198297613801E-02
0.973000E-01      0.350543585          316.838275         0.110638017243E-02
0.974700E-01      0.844833346          316.606394         0.266840266634E-02
0.976400E-01       1.35996325          316.367476         0.429868223198E-02
0.978100E-01       1.50073223          316.121555         0.474732647565E-02
0.979800E-01       1.27906556          315.868669         0.404935876590E-02
0.981500E-01      0.955014446          315.608853         0.302594314588E-02
0.983200E-01      0.794949323          315.342145         0.252091049210E-02
0.984900E-01      0.894999718          315.068582         0.284065047691E-02
0.986600E-01       1.15561851          314.788201         0.367109856877E-02
0.988300E-01       1.39159439          314.501040         0.442476880121E-02
0.990000E-01       1.48297773          314.207137         0.471974551932E-02
0.991700E-01       1.45975346          313.906530         0.465028066481E-02
0.993400E-01       1.46790454          313.599257         0.468082912813E-02
0.995100E-01       1.64781645          313.285358         0.525979402371E-02
0.996800E-01       2.01420721          312.964871         0.643588911315E-02
0.998500E-01       2.42458903          312.637836         0.775526423949E-02
0.100020           2.66406271          312.304292         0.853034291365E-02
0.100190           2.59658718          311.964280         0.832334773261E-02
0.100360           2.28596352          311.617838         0.733579160914E-02
0.100530           2.00322236          311.265007         0.643574546810E-02
0.100700           2.10324600          310.905808         0.676489776435E-02
0.100870           2.83253013          310.540323         0.912129575284E-02
0.101040           4.17446511          310.168569         0.134586980203E-01
0.101210           5.82162086          309.790590         0.187921165070E-01
0.101380           7.29586248          309.406426         0.235801905130E-01
0.101550           8.15645619          309.016120         0.263949213814E-01
0.101720           8.18965576          308.619712         0.265363987884E-01
0.101890           7.48594707          308.217245         0.242878916994E-01
0.102060           6.37388524          307.808761         0.207072898624E-01
0.102230           5.25507625          307.394302         0.170955551777E-01
0.102400           4.43091159          306.973910         0.144341634307E-01
0.102570           4.00518099          306.547629         0.130654443699E-01
0.102740           3.89612454          306.115500         0.127276290794E-01
0.102910           3.92960527          305.677567         0.128553930378E-01
0.103080           3.94797447          305.233873         0.129342606453E-01
0.103250           3.87476158          304.784461         0.127131205072E-01
0.103420           3.71420692          304.329374         0.122045626657E-01
0.103590           3.50845720          303.868657         0.115459660675E-01
0.103760           3.29580557          303.402352         0.108628214598E-01
0.103930           3.10058620          302.930503         0.102353053729E-01
0.104100           2.95230487          302.453154         0.976119716657E-02
0.104270           2.90429657          301.970351         0.961782031263E-02
0.104440           3.02119073          301.482135         0.100211268722E-01
0.104610           3.33066513          300.988552         0.110657535000E-01
0.104780           3.76909081          300.489647         0.125431636339E-01
0.104950           4.16652082          299.985463         0.138890757416E-01
0.105120           4.29934399          299.476046         0.143562199879E-01
0.105290           3.99671159          298.961439         0.133686525053E-01
0.105460           3.24618509          298.441688         0.108771167599E-01
0.105630           2.23342557          297.916838         0.749680880050E-02
0.105800           1.28125068          297.386933         0.430836239473E-02
0.105970          0.709872765          296.852004         0.239133559977E-02
0.106140          0.689095036          296.312482         0.232556870634E-02
0.106310           1.16325792          295.759224         0.393312475042E-02
0.106480           1.89183597          295.209574         0.640845059954E-02
0.106650           2.58341168          294.655000         0.876758135480E-02
0.106820           3.04706604          294.095654         0.103607992793E-01
0.106990           3.27629517          293.531571         0.111616449198E-01
0.107160           3.42282709          292.962796         0.116834872322E-01
0.107330           3.68553654          292.389375         0.126048921448E-01
0.107500           4.19037156          291.811353         0.143598647273E-01
0.107670           4.93787013          291.228777         0.169552960473E-01
0.107840           5.84415045          290.641691         0.201077499735E-01
0.108010           6.83215593          290.050141         0.235550857473E-01
0.108180           7.88998762          289.454172         0.272581581863E-01
0.108350           9.03374976          288.853832         0.312744674484E-01
0.108520           10.1858675          288.249164         0.353370233764E-01
