# ort(start) =    -8.1790
#   klo  khi step start
#%    4   91    1    4

# Energy[ev]             flux               DELTA(E)           Probability
0.880000           2.44245469          56.7410467         0.430456403340E-01
0.880540           2.34752098          57.0696669         0.411343032547E-01
0.881080           2.26639228          57.3983731         0.394853051152E-01
0.881620           2.18968742          57.7271474         0.379316754321E-01
0.882160           2.10498977          58.0559715         0.362579372427E-01
0.882700           2.00377335          58.3848274         0.343201040218E-01
0.883240           1.88630453          58.7136968         0.321271633184E-01
0.883780           1.76287062          59.0425614         0.298576242973E-01
0.884320           1.65114633          59.3714029         0.278104651765E-01
0.884860           1.57090062          59.7002028         0.263131537556E-01
0.885400           1.53806397          60.0289427         0.256220400603E-01
0.885940           1.56018210          60.3576039         0.258489734745E-01
0.886480           1.63457174          60.6861679         0.269348320930E-01
0.887020           1.74942762          61.0146161         0.286722711999E-01
0.887560           1.88715236          61.3429296         0.307639751364E-01
0.888100           2.02864015          61.6710897         0.328945080114E-01
0.888640           2.15725479          61.9990775         0.347949498432E-01
0.889180           2.26167395          62.3268743         0.362872994315E-01
0.889720           2.33734165          62.6544610         0.373052711280E-01
0.890260           2.38669728          62.9818186         0.378950200696E-01
0.890800           2.41848197          63.3089282         0.382012780847E-01
0.891340           2.44630235          63.6357707         0.384422521928E-01
0.891880           2.48644201          63.9623270         0.388735389222E-01
0.892420           2.55486828          64.2885779         0.397406251648E-01
0.892960           2.66359939          64.6145043         0.412229330506E-01
0.893500           2.81701652          64.9400870         0.433786995359E-01
0.894040           3.00910964          65.2653066         0.461058072136E-01
0.894580           3.22276819          65.5901440         0.491349462079E-01
0.895120           3.43188944          65.9145797         0.520657106840E-01
0.895660           3.60629905          66.2385946         0.544440756389E-01
0.896200           3.71850145          66.5621692         0.558650881134E-01
0.896740           3.75047859          66.8852847         0.560732993856E-01
0.897280           3.69849357          67.2079229         0.550306184703E-01
0.897820           3.57430459          67.5300475         0.529290993737E-01
0.898360           3.40225787          67.8519996         0.501423376087E-01
0.898900           3.21304901          68.1730649         0.471307694392E-01
0.899440           3.03604329          68.4935879         0.443259490591E-01
0.899980           2.89250964          68.8135365         0.420340210764E-01
0.900520           2.79176885          69.1328894         0.403826437478E-01
0.901060           2.73121251          69.4516271         0.393253927470E-01
0.901600           2.69980564          69.7697301         0.386959449680E-01
0.902140           2.68354141          70.0871788         0.382886208153E-01
0.902680           2.67078379          70.4039538         0.379351392814E-01
0.903220           2.65567507          70.7200356         0.375519476321E-01
0.903760           2.63866685          71.0354047         0.371457988260E-01
0.904300           2.62438096          71.3500417         0.367817718990E-01
0.904840           2.61797378          71.6639270         0.365312632307E-01
0.905380           2.62161611          71.9770412         0.364229491114E-01
0.905920           2.63249448          72.2893650         0.364160686768E-01
0.906460           2.64303062          72.6008787         0.364049398449E-01
0.907000           2.64312322          72.9115632         0.362510842059E-01
0.907540           2.62349733          73.2213989         0.358296532368E-01
0.908080           2.57894999          73.5303665         0.350732645014E-01
0.908620           2.51045863          73.8384466         0.339993424533E-01
0.909160           2.42563610          74.1456200         0.327144894107E-01
0.909700           2.33762384          74.4518673         0.313977866420E-01
0.910240           2.26297276          74.7571693         0.302709797463E-01
0.910780           2.21922989          75.0615067         0.295654855494E-01
0.911320           2.22283113          75.3648604         0.294942645025E-01
0.911860           2.28760926          75.6672112         0.302325039019E-01
0.912400           2.42391918          75.9685400         0.319068811908E-01
0.912940           2.63817691          76.2688277         0.345905003264E-01
0.913480           2.93255027          76.5680552         0.382999184293E-01
0.914020           3.30459708          76.8662037         0.429915479621E-01
0.914560           3.74676100          77.1632540         0.485562856361E-01
0.915100           4.24575913          77.4591874         0.548128540179E-01
0.915640           4.78201746          77.7539850         0.615018955528E-01
0.916180           5.32943925          78.0476280         0.682844488002E-01
0.916720           5.85591851          78.3400976         0.747499516820E-01
0.917260           6.32507915          78.6313752         0.804396353346E-01
0.917800           6.69963033          78.9214421         0.848898619580E-01
0.918340           6.94638862          79.2102799         0.876955444745E-01
0.918880           7.04242196          79.4978699         0.885862975838E-01
0.919420           6.98105602          79.7841939         0.874992361675E-01
0.919960           6.77592737          80.0692333         0.846258555731E-01
0.920500           6.46120017          80.3529699         0.804102222768E-01
0.921040           6.08671894          80.6353855         0.754844650402E-01
0.921580           5.70823998          80.9164619         0.705448538491E-01
0.922120           5.37463751          81.1961810         0.661932303270E-01
0.922660           5.11552198          81.4745250         0.627867665982E-01
0.923200           4.93336754          81.7514757         0.603459142241E-01
0.923740           4.80354931          82.0270154         0.585605764225E-01
0.924280           4.68360263          82.3011264         0.569081230787E-01
0.924820           4.53004279          82.5737909         0.548605403484E-01
0.925360           4.31816833          82.8449914         0.521234688066E-01
0.925900           4.05849692          83.1147104         0.488300674663E-01
0.926440           3.80366761          83.3829305         0.456168616838E-01
0.926980           3.64199247          83.6496344         0.435386537382E-01
0.927520           3.67779157          83.9148048         0.438276843006E-01
0.928060           4.00299544          84.1784246         0.475536986994E-01
0.928600           4.66778867          84.4404768         0.552790420278E-01
0.929140           5.65909280          84.7009446         0.668126291505E-01
0.929680           6.89394772          84.9598110         0.811436329854E-01
0.930220           8.23077690          85.2170593         0.965860235770E-01
0.930760           9.49635365          85.4726730         0.111103974154    
0.931300           10.5216670          85.7266355         0.122735097303    
0.931840           11.1772966          85.9789305         0.130000414319    
0.932380           11.3991534          86.2295416         0.132195454569    
0.932920           11.1983810          86.4784527         0.129493309580    
0.933460           10.6538321          86.7256478         0.122845229625    
0.934000           9.89031608          86.9711108         0.113719555663    
0.934540           9.04928652          87.2148260         0.103758580173    
0.935080           8.25986732          87.4567777         0.944451365704E-01
0.935620           7.61697695          87.6969503         0.868556651189E-01
0.936160           7.17045100          87.9353283         0.815423236232E-01
0.936700           6.92559815          88.1718964         0.785465485770E-01
0.937240           6.85269405          88.4066395         0.775133416712E-01
0.937780           6.90128843          88.6395423         0.778578978928E-01
0.938320           7.01506474          88.8705900         0.789357281925E-01
0.938860           7.14400675          89.0997677         0.801798583150E-01
0.939400           7.25215440          89.3270609         0.811865332739E-01
0.939940           7.32064746          89.5524548         0.817470327835E-01
0.940480           7.34669287          89.7759351         0.818336546555E-01
0.941020           7.33951147          89.9974876         0.815524040754E-01
0.941560           7.31442710          90.2170980         0.810758410857E-01
0.942100           7.28630369          90.4347524         0.805697311288E-01
0.942640           7.26362998          90.6504370         0.801279091730E-01
0.943180           7.24460941          90.8641379         0.797301287158E-01
0.943720           7.21641507          91.0758417         0.792352278577E-01
0.944260           7.15813548          91.2855349         0.784147836970E-01
0.944800           7.04688997          91.4932043         0.770209112418E-01
0.945340           6.86542774          91.6988367         0.748693002742E-01
0.945880           6.60872015          91.9024191         0.719101871082E-01
0.946420           6.28706066          92.1039387         0.682604973036E-01
0.946960           5.92418004          92.3033829         0.641816135155E-01
0.947500           5.55063128          92.5007390         0.600063451896E-01
0.948040           5.19458236          92.6959949         0.560389083440E-01
0.948580           4.87340463          92.8891382         0.524647415810E-01
0.949120           4.58945408          93.0801569         0.493064713107E-01
0.949660           4.33206850          93.2690391         0.464470154478E-01
0.950200           4.08546901          93.4557731         0.437155338602E-01
0.950740           3.83983234          93.6403473         0.410061736758E-01
0.951280           3.60127126          93.8227502         0.383837742180E-01
0.951820           3.39651435          94.0029708         0.361319894496E-01
0.952360           3.26979656          94.1809978         0.347182194930E-01
0.952900           3.27227166          94.3568204         0.346797575893E-01
0.953440           3.44708517          94.5304279         0.364653503372E-01
0.953980           3.81500002          94.7018096         0.402843413545E-01
0.954520           4.36544394          94.8709551         0.460145461273E-01
0.955060           5.05603498          95.0378542         0.532002223785E-01
0.955600           5.82073497          95.2024968         0.611405705664E-01
0.956140           6.58389954          95.3648731         0.690390426264E-01
0.956680           7.27572830          95.5249732         0.761657192912E-01
0.957220           7.84458645          95.6827877         0.819853459333E-01
0.957760           8.26326886          95.8383072         0.862209392274E-01
0.958300           8.52875755          95.9915225         0.888490704742E-01
0.958840           8.65731185          96.1424245         0.900467394123E-01
0.959380           8.67790553          96.2910045         0.901216638121E-01
0.959920           8.62670493          96.4372536         0.894540710137E-01
0.960460           8.54377270          96.5811635         0.884621015893E-01
0.961000           8.47131760          96.7227259         0.875835283366E-01
0.961540           8.45156257          96.8619325         0.872537058613E-01
0.962080           8.52232489          96.9987754         0.878601286421E-01
0.962620           8.70972546          97.1332470         0.896678092946E-01
0.963160           9.01945107          97.2653395         0.927303716028E-01
0.963700           9.42969365          97.3950456         0.968190280459E-01
0.964240           9.88936791          97.5223580         0.101406160702    
0.964780           10.3240536          97.6472697         0.105728031817    
0.965320           10.6496311          97.7697739         0.108925598342    
0.965860           10.7907054          97.8898639         0.110233123100    
0.966400           10.6988149          98.0075332         0.109163189578    
0.966940           10.3650026          98.1227754         0.105632994236    
0.967480           9.82285231          98.2355846         0.999928116859E-01
0.968020           9.14103944          98.3459547         0.929477930571E-01
0.968560           8.40771846          98.4538800         0.853975329173E-01
0.969100           7.71145973          98.5593550         0.782417836258E-01
0.969640           7.12410543          98.6623742         0.722069125446E-01
0.970180           6.68971353          98.7629326         0.677350636985E-01
0.970720           6.42130431          98.8610251         0.649528395880E-01
0.971260           6.30447677          98.9566470         0.637094825525E-01
0.971800           6.30516521          99.0497936         0.636565204427E-01
0.972340           6.37843737          99.1404604         0.643373789033E-01
0.972880           6.47618901          99.2286433         0.652653184770E-01
0.973420           6.55316361          99.3143383         0.659840635669E-01
0.973960           6.57199398          99.3975414         0.661182750568E-01
0.974500           6.50823045          99.4782490         0.654236530293E-01
0.975040           6.35547453          99.5564577         0.638378933710E-01
0.975580           6.12930742          99.6321641         0.615193645674E-01
0.976120           5.86760729          99.7053651         0.588494639126E-01
0.976660           5.62493628          99.7760579         0.563756115210E-01
0.977200           5.46027049          99.8442398         0.546878868834E-01
0.977740           5.42001044          99.9099081         0.542489782775E-01
0.978280           5.52087529          99.9730607         0.552236297680E-01
0.978820           5.73867253          100.033695         0.573673951422E-01
0.979360           6.00813781          100.091810         0.600262680257E-01
0.979900           6.23598087          100.147403         0.622680237656E-01
0.980440           6.32484328          100.200473         0.631218905795E-01
0.980980           6.20165837          100.251018         0.618613006781E-01
0.981520           5.84158015          100.299038         0.582416370842E-01
0.982060           5.27930762          100.344533         0.526118110465E-01
0.982600           4.60328337          100.387447         0.458551691348E-01
0.983140           3.93374747          100.427884         0.391698730897E-01
0.983680           3.39106273          100.465789         0.337534075534E-01
0.984220           3.06411840          100.501165         0.304883867293E-01
0.984760           2.98868590          100.534013         0.297281071400E-01
0.985300           3.14226392          100.564331         0.312463065552E-01
0.985840           3.45638727          100.592121         0.343604173658E-01
0.986380           3.84157512          100.617383         0.381800340512E-01
0.986920           4.21612095          100.640118         0.418930446495E-01
0.987460           4.52913668          100.660326         0.449942580911E-01
0.988000           4.77082007          100.678009         0.473869133648E-01
0.988540           4.96775734          100.693167         0.493355952334E-01
0.989080           5.16635612          100.705803         0.513014738265E-01
0.989620           5.41131539          100.715918         0.537285019002E-01
0.990160           5.72711737          100.723513         0.568597855029E-01
0.990700           6.10869320          100.728592         0.606450771091E-01
0.991240           6.52357225          100.731155         0.647622105630E-01
0.991780           6.92354511          100.731205         0.687328729619E-01
0.992320           7.26074818          100.728745         0.720821865040E-01
0.992860           7.50212853          100.723777         0.744821999371E-01
0.993400           7.63757619          100.716305         0.758325691493E-01
0.993940           7.67985372          100.706332         0.762598895277E-01
0.994480           7.65756670          100.693860         0.760480006129E-01
0.995020           7.60460907          100.678893         0.755333005822E-01
0.995560           7.55010442          100.661435         0.750049356259E-01
0.996100           7.51188399          100.641489         0.746400323099E-01
0.996640           7.49464494          100.619060         0.744853405882E-01
0.997180           7.49203185          100.594151         0.744778075670E-01
0.997720           7.49074392          100.566768         0.744852806644E-01
0.998260           7.47470168          100.536914         0.743478331110E-01
0.998800           7.42809512          100.504594         0.739080160321E-01
0.999340           7.33721527          100.469813         0.730290530170E-01
0.999880           7.19173012          100.432575         0.716075446481E-01
 1.00042           6.98614978          100.392887         0.695880949736E-01
 1.00096           6.72168050          100.350754         0.669818636558E-01
 1.00150           6.40788707          100.306180         0.638832727903E-01
 1.00204           6.06307818          100.259172         0.604740499505E-01
 1.00258           5.71246048          100.209736         0.570050449007E-01
 1.00312           5.38388544          100.157877         0.537539893522E-01
 1.00366           5.10209997          100.103601         0.509681959224E-01
 1.00420           4.88327100          100.046916         0.488098102336E-01
 1.00474           4.73172619          99.9878276         0.473230222764E-01
 1.00528           4.64018046          99.9263421         0.464360083877E-01
 1.00582           4.59343889          99.8624667         0.459976509556E-01
 1.00636           4.57421961          99.7962083         0.458356052844E-01
 1.00690           4.56891878          99.7275741         0.458139969974E-01
 1.00744           4.57122213          99.6565713         0.458697512108E-01
 1.00798           4.58243424          99.5832075         0.460161341806E-01
 1.00852           4.60882794          99.5074903         0.463163921105E-01
 1.00906           4.65757879          99.4294274         0.468430615346E-01
 1.00960           4.73337494          99.3490267         0.476438984260E-01
 1.01014           4.83734269          99.2662964         0.487309677656E-01
 1.01068           4.96870417          99.1812446         0.500972153547E-01
 1.01122           5.12814751          99.0938797         0.517503959007E-01
 1.01176           5.32091243          99.0042103         0.537443045310E-01
 1.01230           5.55755472          98.9122449         0.561867211028E-01
 1.01284           5.85131459          98.8179925         0.592130485265E-01
 1.01338           6.21258319          98.7214620         0.629304212405E-01
 1.01392           6.64245101          98.6226625         0.673521768948E-01
 1.01446           7.12804681          98.5216032         0.723500895215E-01
 1.01500           7.64196123          98.4182935         0.776477721617E-01
 1.01554           8.14660330          98.3127429         0.828641644917E-01
 1.01608           8.60242468          98.2049611         0.875966405561E-01
 1.01662           8.97735277          98.0949579         0.915169644080E-01
 1.01716           9.25418092          97.9827433         0.944470486460E-01
 1.01770           9.43335153          97.8683272         0.963881962323E-01
 1.01824           9.53028816          97.7517199         0.974948385945E-01
