0.000000000000000000e+00 3.943157013709999714e-02
4.494037352833275172e-04 1.922544498153000159e-01
5.992049803777700591e-04 4.303636533039999906e-02
1.198409960755540118e-03 1.033649085190999854e-03
1.647813696038867744e-03 3.389819643156999351e-02
1.797614941133310069e-03 1.402831241158000036e-02
2.396819921511080236e-03 4.671907733530000079e-02
2.846223656794407645e-03 5.145416751130000438e-02
3.595229882266620137e-03 9.840156998790000609e-02
4.044633617549947546e-03 2.687748397595999747e-02
4.793639843022160472e-03 8.536193391339999548e-02
5.392844823399930640e-03 2.026150801689000081e-02
6.441453539061028216e-03 2.249409775035999745e-02
6.591254784155470975e-03 7.287154313799999727e-02
7.190459764533240275e-03 9.096047624960001965e-02
7.639863499816568551e-03 2.632247495143999819e-02
8.838273460572108886e-03 1.040239256241000040e-02
9.587279686044320945e-03 1.166019128706000108e-02
1.003668342132764922e-02 5.091254653840000290e-03
1.018648466642209025e-02 1.645025696900000167e-02
1.078568964679986128e-02 5.962782095294999474e-02
1.123509338208318782e-02 0.000000000000000000e+00
1.138489462717763058e-02 2.719537464022000247e-03
1.243350334283872816e-02 0.000000000000000000e+00
1.318250956831094195e-02 7.232831700789999494e-05
1.438091952906648055e-02 0.000000000000000000e+00
1.483032326434980883e-02 4.189119542889999819e-04
1.498012450944425158e-02 1.314645346461000000e-03
1.602873322510534743e-02 1.508968601460999783e-03
1.617853447019979019e-02 8.134611096884000964e-04
1.842555314661642810e-02 1.505219923956900054e-03
1.917455937208864189e-02 0.000000000000000000e+00
1.962396310737197017e-02 3.610824448975000081e-04
1.977376435246641292e-02 1.444284904388999885e-04
2.037296933284418049e-02 2.362102543072000169e-04
2.082237306812750877e-02 0.000000000000000000e+00
2.157137929359972256e-02 0.000000000000000000e+00
2.202078302888305084e-02 0.000000000000000000e+00
2.276978925435526116e-02 0.000000000000000000e+00
2.441760295039413151e-02 2.617326935985999758e-04
2.456740419548857080e-02 0.000000000000000000e+00
2.561601291114967011e-02 4.964084075209999588e-04
2.576581415624411286e-02 8.722560119360000044e-04
2.636501913662188390e-02 0.000000000000000000e+00
2.681442287190520871e-02 4.532820588880000006e-04
2.801283283266075078e-02 1.477597782013000127e-03
2.876183905813296110e-02 0.000000000000000000e+00
2.936104403851073213e-02 0.000000000000000000e+00
2.996024901888850317e-02 6.176384790670000433e-04
3.055945399926627420e-02 9.826052726640999591e-04
3.160806271492737352e-02 6.884814419330000795e-04
3.235706894039958037e-02 1.626452417819000012e-04
3.280647267568290865e-02 4.608734818799999971e-07
3.400488263643845072e-02 3.841623856557000415e-04
3.415468388153289347e-02 2.913844525187000295e-04
3.535309384228843554e-02 0.000000000000000000e+00
3.640170255794952792e-02 3.886143671098699721e-04
3.760011251870506999e-02 0.000000000000000000e+00
3.834911874417728378e-02 6.366983198440000213e-04
3.954752870493282585e-02 0.000000000000000000e+00
3.999693244021615413e-02 9.260346337869999368e-04
4.014673368531059688e-02 0.000000000000000000e+00
4.074593866568836098e-02 0.000000000000000000e+00
4.119534240097168926e-02 0.000000000000000000e+00
4.239375236172723133e-02 7.235656481720000293e-04
4.314275858719944512e-02 7.020167926308000473e-04
4.359216232248277340e-02 0.000000000000000000e+00
4.374196356757721615e-02 1.424140997991999867e-04
4.494037352833275129e-02 2.969186622942000245e-04
4.553957850871052232e-02 1.335947205267000101e-03
4.598898224399385060e-02 0.000000000000000000e+00
4.838580216550493474e-02 5.860603751709999622e-04
4.853560341059937749e-02 6.813462062668999277e-04
4.913480839097714159e-02 1.711754164127999938e-04
4.958421212626046987e-02 0.000000000000000000e+00
4.973401337135491262e-02 3.507832805396999968e-04
5.078262208701601194e-02 1.991852001704000016e-04
5.153162831248822573e-02 3.219322246530999763e-04
5.198103204777155401e-02 2.064009362124000061e-04
5.273003827324376780e-02 1.524015268103999976e-04
5.332924325362153190e-02 1.375733301669999876e-04
5.437785196928263121e-02 0.000000000000000000e+00
5.677467189079371535e-02 0.000000000000000000e+00
5.752367811626592220e-02 1.119983159445999982e-03
5.797308185154925048e-02 2.468640593822999806e-04
5.812288309664369323e-02 2.046186513907000040e-04
5.872208807702146427e-02 0.000000000000000000e+00
5.932129305739923530e-02 2.860343452948999922e-04
5.992049803777700634e-02 0.000000000000000000e+00
6.111890799853254841e-02 0.000000000000000000e+00
6.156831173381587669e-02 0.000000000000000000e+00
6.276672169457141182e-02 0.000000000000000000e+00
6.411493290042138971e-02 0.000000000000000000e+00
6.471413788079916074e-02 4.110390318040000050e-04
6.636195157683803802e-02 1.741775599929000086e-05
6.756036153759358009e-02 0.000000000000000000e+00
6.771016278268801591e-02 0.000000000000000000e+00
6.830936776306578695e-02 1.369426909366000013e-03
6.875877149834910829e-02 0.000000000000000000e+00
6.995718145910465036e-02 6.792778348260000449e-04
7.070618768457687109e-02 0.000000000000000000e+00
7.115559141986019243e-02 0.000000000000000000e+00
7.250380262571017032e-02 0.000000000000000000e+00
7.355241134137127657e-02 4.519913627600000475e-05
7.370221258646571239e-02 4.946326899469999806e-04
7.475082130212681863e-02 0.000000000000000000e+00
7.594923126288236070e-02 0.000000000000000000e+00
7.669823748835456756e-02 0.000000000000000000e+00
7.729744246873233859e-02 0.000000000000000000e+00
7.834605118439343097e-02 9.119810869620000688e-04
7.849585242948788066e-02 0.000000000000000000e+00
7.909505740986565170e-02 0.000000000000000000e+00
7.954446114514897304e-02 5.018283082654000299e-04
8.029346737062119377e-02 4.780757922939999716e-05
8.074287110590451511e-02 0.000000000000000000e+00
8.149187733137672196e-02 0.000000000000000000e+00
8.194128106666005718e-02 1.314707291677000072e-03
8.209108231175449299e-02 0.000000000000000000e+00
8.328949227251003506e-02 1.959809413083999507e-05
8.433810098817114131e-02 0.000000000000000000e+00
8.553651094892666951e-02 0.000000000000000000e+00
8.628551717439889024e-02 0.000000000000000000e+00
8.673492090968221158e-02 4.566073915992389714e-04
8.748392713515443231e-02 0.000000000000000000e+00
8.793333087043775365e-02 0.000000000000000000e+00
8.808313211553220334e-02 1.194636839672000067e-04
8.988074705666550257e-02 4.499709399230000036e-04
9.033015079194883779e-02 6.388095187990000187e-04
9.107915701742104464e-02 6.305396317330000605e-04
9.167836199779881567e-02 0.000000000000000000e+00
9.272697071345992192e-02 0.000000000000000000e+00
9.392538067421545012e-02 1.102708632939000026e-03
9.632220059572653426e-02 0.000000000000000000e+00
9.707120682119875499e-02 9.883926579809998100e-04
9.767041180157652602e-02 1.222534471999000161e-03
9.826961678195428318e-02 2.321534988920000023e-04
9.871902051723761840e-02 0.000000000000000000e+00
9.946802674270982525e-02 0.000000000000000000e+00
1.011158404387487025e-01 6.434846944277999251e-04
1.012656416838431384e-01 8.009541208189999758e-04
1.023142503995042307e-01 1.334089741596999900e-04
1.024640516445986804e-01 1.407670841862999965e-04
1.030632566249764515e-01 0.000000000000000000e+00
1.035126603602597728e-01 0.000000000000000000e+00
1.047110703210153149e-01 6.162659374185999479e-04
1.054600765464875356e-01 1.752603188004000047e-04
1.060592815268653066e-01 7.943440133155999210e-04
1.066584865072430638e-01 3.000165333976000234e-04
1.072576914876208348e-01 0.000000000000000000e+00
1.083063002032819411e-01 1.496810977467000084e-04
1.095047101640374831e-01 3.931318605278000190e-05
1.107031201247930252e-01 1.081593799979000005e-04
1.119015300855485534e-01 4.230029184811999639e-04
1.120513313306430031e-01 0.000000000000000000e+00
1.150473562325318444e-01 2.413326222601000005e-04
1.154967599678151796e-01 1.741434209909000213e-05
1.156465612129096154e-01 0.000000000000000000e+00
1.162457661932873865e-01 0.000000000000000000e+00
1.166951699285707217e-01 0.000000000000000000e+00
1.174441761540429285e-01 1.534992824720999931e-04
1.178935798893262638e-01 0.000000000000000000e+00
1.186425861147984706e-01 6.975315039909999654e-06
1.198409960755540127e-01 1.973513872060999756e-05
1.202903998108373340e-01 9.236309513819998106e-05
1.204402010559317837e-01 1.975582104320000059e-05
1.214888097715928761e-01 3.528514485197000318e-05
1.222378159970650968e-01 1.190910400586000074e-04
1.238856296931039602e-01 8.173221757109999075e-06
1.252338408989539520e-01 0.000000000000000000e+00
1.262824496146150444e-01 1.820323182446999897e-05
1.264322508597094941e-01 2.440827681336999691e-05
1.282298658008427794e-01 0.000000000000000000e+00
1.286792695361261285e-01 0.000000000000000000e+00
1.294282757615983215e-01 4.862595621380000086e-06
1.298776794968816706e-01 2.131012285649000031e-05
1.312258907027316346e-01 0.000000000000000000e+00
1.322744994183927270e-01 4.982908010100000091e-06
1.334729093791482690e-01 7.761366328355998382e-06
1.348211205849982608e-01 6.649664624381998777e-06
1.354203255653760318e-01 8.220851747100000619e-06
1.358697293006593532e-01 4.350894441479999788e-06
1.360195305457538029e-01 1.527794675340000152e-06
1.366187355261315739e-01 5.831583415324000132e-06
1.394649591829259794e-01 6.401861367980000393e-07
1.396147604280204291e-01 6.926175389660000285e-07
1.406633691436815214e-01 1.925057112546000257e-06
1.414123753691537422e-01 1.111171987448000144e-06
1.418617791044370635e-01 1.382962986042999968e-06
1.442585990259481477e-01 1.897299514829690013e-07
1.444084002710425974e-01 0.000000000000000000e+00
1.450076052514203406e-01 5.125445436640000044e-07
1.454570089867036897e-01 0.000000000000000000e+00
1.456068102317981117e-01 1.176034776507099981e-06
1.466554189474592318e-01 4.836604102600000283e-07
1.474044251729314248e-01 7.071770703700000015e-07
1.492020401140647379e-01 1.090370982127000022e-07
1.502506488297258302e-01 5.414331430140000428e-07
1.504004500748202799e-01 1.283306295421999942e-07
1.514490587904813723e-01 3.102676408433000205e-07
1.526474687512369144e-01 1.016528131988999991e-07
