0.000000000000000000e+00 4.340280773729999764e-01
2.247955324468499752e-04 1.369759458268999912e-02
2.997273765957999669e-04 3.585910555070000172e-02
5.994547531915999337e-04 7.978203993320000242e-02
8.242502856384498547e-04 4.663840998389999493e-02
8.991821297873999006e-04 3.725237290865999855e-03
1.198909506383199867e-03 4.041605939020000149e-02
1.423705038830049788e-03 9.971790837680000186e-02
1.798364259574799801e-03 2.082884004305999848e-01
2.023159792021649722e-03 2.540049111603999866e-03
2.397819012766399735e-03 5.578795889950000086e-03
2.697546389362199919e-03 8.668242219920000227e-03
3.222069298404849590e-03 2.960838453860000315e-05
3.297001142553799419e-03 0.000000000000000000e+00
3.596728519149599602e-03 0.000000000000000000e+00
3.821524051596449523e-03 0.000000000000000000e+00
4.420978804788049457e-03 0.000000000000000000e+00
4.795638025532799470e-03 0.000000000000000000e+00
5.020433557979649825e-03 2.121832925702000008e-03
5.095365402128599654e-03 7.067752504400000454e-05
5.395092778724399837e-03 6.565437316633029180e-03
5.619888311171249325e-03 0.000000000000000000e+00
5.694820155320199154e-03 0.000000000000000000e+00
6.219343064362849692e-03 3.901659086001000188e-03
6.594002285107598837e-03 1.416744375355000066e-03
7.193457038299199205e-03 0.000000000000000000e+00
7.418252570746049560e-03 1.537837108999300052e-03
7.493184414894999389e-03 1.050234921435000066e-02
8.017707323937649927e-03 0.000000000000000000e+00
8.092639168086598889e-03 8.764135291420000048e-04
9.216616830320848927e-03 6.001164761148000334e-03
9.591276051065598940e-03 8.094833152690000897e-04
9.816071583512449295e-03 0.000000000000000000e+00
9.891003427661398256e-03 5.039651331189999930e-03
1.019073080425719931e-02 0.000000000000000000e+00
1.041552633670404966e-02 1.992816268452999966e-03
1.079018555744879967e-02 2.052864124589999940e-03
1.101498108989564829e-02 1.189360835142999877e-03
1.138964031064039831e-02 6.354415452660000171e-03
1.221389059627884903e-02 2.459043930444999859e-03
1.228882244042779799e-02 0.000000000000000000e+00
1.281334534947044940e-02 8.155100258089998787e-04
1.288827719361939836e-02 0.000000000000000000e+00
1.318800457021519767e-02 0.000000000000000000e+00
1.341280010266204803e-02 1.132278327874000103e-03
1.401225485585364840e-02 3.943878643973999613e-04
1.438691407659839841e-02 0.000000000000000000e+00
1.468664145319419773e-02 1.194319225430999932e-03
1.498636882978999878e-02 1.404115962089000098e-03
1.528609620638579809e-02 2.709434456269999795e-03
1.581061911542844950e-02 0.000000000000000000e+00
1.618527833617319778e-02 1.100123566305000015e-03
1.641007386862004813e-02 1.466101516157999841e-03
1.700952862181164676e-02 0.000000000000000000e+00
1.708446046596059920e-02 5.220267126790001030e-03
1.768391521915219783e-02 0.000000000000000000e+00
1.820843812819484750e-02 6.707670937118999583e-04
1.880789288138644960e-02 4.393128658409999423e-04
1.918255210213119788e-02 3.845993839940000172e-03
1.978200685532279651e-02 1.850548657019000114e-04
2.000680238776964687e-02 2.258195725719999887e-03
2.008173423191859930e-02 0.000000000000000000e+00
2.038146160851439861e-02 0.000000000000000000e+00
2.060625714096124897e-02 1.420932498321000100e-03
2.120571189415284760e-02 1.691935306262000015e-03
2.158037111489759935e-02 2.904981278409999972e-03
2.180516664734444623e-02 2.260748031638999938e-03
2.188009849149339867e-02 1.363616577679000125e-03
2.247955324468499730e-02 0.000000000000000000e+00
2.277928062128079661e-02 3.687084664414000141e-03
2.300407615372764697e-02 2.177323045979999956e-05
2.420298566011084770e-02 0.000000000000000000e+00
2.427791750425979667e-02 7.712949182115999124e-04
2.457764488085559598e-02 0.000000000000000000e+00
2.480244041330244634e-02 2.458951383222000159e-03
2.487737225745139877e-02 0.000000000000000000e+00
2.540189516649404844e-02 1.579413188377600192e-03
2.577655438723879672e-02 3.326665957991999773e-04
2.600134991968564707e-02 1.705261259476999799e-03
2.637600914043039535e-02 0.000000000000000000e+00
2.667573651702619814e-02 2.102753887266000429e-03
2.720025942606884781e-02 3.863909795525999682e-03
2.839916893245204854e-02 2.365209925101000206e-03
2.877382815319679682e-02 0.000000000000000000e+00
2.899862368564364717e-02 3.181366409723999987e-04
2.907355552979259614e-02 3.045228254514999872e-03
2.937328290638839545e-02 2.344892333529999956e-03
2.967301028298419824e-02 1.223385089365999854e-03
2.997273765957999755e-02 0.000000000000000000e+00
3.057219241277159619e-02 1.677727863938000084e-03
3.079698794521844654e-02 2.605834963714000110e-03
3.139644269841004864e-02 1.271852678880000141e-04
3.207082929575059971e-02 2.047139121431000141e-03
3.237055667234639555e-02 0.000000000000000000e+00
3.319480695798484454e-02 2.017466717975999711e-03
3.379426171117644317e-02 8.015883162030000217e-03
3.386919355532539561e-02 1.965040408843000182e-03
3.416892093192119839e-02 2.763211404091999997e-04
3.439371646436804875e-02 1.177465989225870077e-02
3.499317121755964738e-02 0.000000000000000000e+00
3.536783043830439566e-02 5.482908009810000022e-05
3.559262597075124601e-02 1.584480056336000191e-03
3.626701256809179708e-02 5.780640097177000038e-03
3.679153547713444328e-02 0.000000000000000000e+00
3.686646732128339571e-02 0.000000000000000000e+00
3.739099023032604885e-02 0.000000000000000000e+00
3.799044498351764748e-02 4.627703570359999972e-05
3.836510420426239576e-02 0.000000000000000000e+00
3.866483158085819855e-02 2.362021920788000273e-03
3.918935448990084475e-02 1.892877748497999967e-03
3.926428633404979718e-02 2.335141179895000151e-03
3.956401371064559302e-02 0.000000000000000000e+00
3.978880924309244338e-02 5.639667593113229654e-03
4.016346846383719860e-02 0.000000000000000000e+00
4.038826399628404895e-02 0.000000000000000000e+00
4.076292321702879723e-02 1.839677570973999917e-03
4.098771874947564758e-02 0.000000000000000000e+00
4.106265059362459308e-02 7.160124282729999918e-04
4.166210534681619865e-02 0.000000000000000000e+00
4.218662825585884485e-02 0.000000000000000000e+00
4.278608300905044348e-02 1.266435839056999878e-03
4.316074222979519870e-02 1.791180307513000163e-03
4.338553776224204211e-02 0.000000000000000000e+00
4.376019698298679733e-02 0.000000000000000000e+00
4.398499251543364769e-02 0.000000000000000000e+00
4.405992435958259318e-02 0.000000000000000000e+00
4.495910648936999460e-02 1.786003279179000213e-03
4.518390202181684495e-02 3.217961523200000038e-05
4.555856124256159323e-02 0.000000000000000000e+00
4.585828861915739602e-02 2.622524851096000309e-03
4.638281152820004222e-02 4.227092095227999967e-03
4.698226628139164779e-02 1.316310936401000149e-03
4.818117578777484505e-02 0.000000000000000000e+00
4.855583500851959333e-02 4.180280488639999750e-03
4.885556238511539612e-02 3.086109845813000008e-03
4.915528976171119196e-02 6.027292242459000426e-04
4.938008529415804232e-02 1.369707651345000027e-03
4.975474451490279754e-02 9.144869512810998983e-05
5.057899480054124652e-02 1.700441767133000154e-03
5.065392664469019202e-02 0.000000000000000000e+00
5.117844955373284516e-02 0.000000000000000000e+00
5.125338139788179759e-02 2.912073900485999834e-03
5.155310877447759343e-02 0.000000000000000000e+00
5.177790430692444379e-02 1.358828042804000004e-03
5.237735906011604242e-02 0.000000000000000000e+00
5.275201828086079070e-02 0.000000000000000000e+00
5.305174565745659349e-02 3.421988143273000174e-03
5.335147303405239627e-02 0.000000000000000000e+00
5.365120041064819212e-02 0.000000000000000000e+00
5.417572331969084526e-02 2.064272431119000117e-03
5.477517807288244389e-02 3.937303283867000722e-03
5.537463282607404252e-02 0.000000000000000000e+00
5.597408757926564116e-02 5.983851352279999922e-05
5.604901942341459359e-02 5.109233298119999090e-04
5.754765630639359364e-02 1.846833254821999963e-04
5.777245183884044399e-02 6.007092771510000317e-03
5.784738368298939643e-02 8.856367650650000430e-04
5.814711105958519227e-02 0.000000000000000000e+00
5.837190659203204263e-02 5.871842812575999923e-03
5.874656581277679090e-02 2.994366776640000182e-03
5.897136134522364126e-02 0.000000000000000000e+00
5.934602056596839648e-02 6.083539247686800544e-03
5.994547531915999511e-02 6.827886529200000035e-04
6.017027085160684546e-02 2.006451916537999817e-03
6.024520269575579096e-02 2.613586977550999991e-03
6.076972560479844410e-02 2.103359882124000105e-03
6.114438482554319237e-02 2.033244516860000135e-03
6.196863511118164136e-02 3.940536196670000289e-03
6.264302170852219243e-02 2.781674878395000439e-03
6.316754461756483863e-02 3.684028154147000068e-03
6.324247646171379800e-02 0.000000000000000000e+00
6.414165859150119942e-02 0.000000000000000000e+00
6.436645412394804977e-02 0.000000000000000000e+00
6.474111334469279111e-02 4.215892252970999780e-03
6.496590887713964146e-02 6.575689031452999940e-03
6.564029547448019253e-02 1.581079627402000136e-03
6.616481838352283873e-02 0.000000000000000000e+00
6.676427313671444430e-02 7.714881641185999082e-03
6.743865973405499536e-02 5.528120921459999965e-04
6.773838711065079121e-02 8.927632679729999949e-05
6.796318264309764157e-02 2.780613437008000021e-03
6.803811448724658706e-02 0.000000000000000000e+00
6.833784186384239678e-02 2.179782677924899711e-03
6.976154690267244440e-02 1.320631642718999828e-04
6.983647874682138990e-02 0.000000000000000000e+00
7.036100165586403610e-02 3.448470309010999869e-03
7.073566087660879131e-02 4.808060652759999984e-03
7.096045640905564167e-02 0.000000000000000000e+00
7.215936591543883893e-02 2.570369317196999868e-03
7.223429775958779830e-02 8.998995528099999633e-05
7.253402513618359415e-02 0.000000000000000000e+00
7.275882066863044451e-02 0.000000000000000000e+00
7.283375251277939000e-02 1.222878836444299833e-03
7.335827542182203620e-02 2.540599791984000239e-03
7.373293464256679142e-02 1.853072799033000017e-03
7.463211677235419284e-02 1.893155065539999741e-03
7.515663968139683904e-02 2.943176236423000140e-03
7.523157152554579841e-02 4.307325514240000278e-03
7.575609443458844461e-02 1.161368632943999971e-04
7.635554918778003630e-02 1.833209448967999854e-03
