0.000000000000000000e+00 3.078253891480000129e-02
1.500758937889582389e-04 8.713896635231999435e-03
2.001011917186109853e-04 6.594468112380000302e-03
4.002023834372219705e-04 1.824194466686999971e-02
5.502782772261802366e-04 9.707249468860000563e-03
6.003035751558329558e-04 7.735997398018000168e-03
8.004047668744439410e-04 3.008562297169999761e-02
9.504806606634022071e-04 4.471852202804000274e-03
1.200607150311665912e-03 2.360404393960000013e-02
1.350683044100624069e-03 3.753047551226200429e-02
1.600809533748887882e-03 8.685373735049999738e-03
1.800910725467498759e-03 1.356478931228499892e-02
2.151087810975068227e-03 1.916851248835999694e-02
2.201113108904720946e-03 2.111498615107999799e-02
2.401214300623331823e-03 1.361302067536000054e-02
2.551290194412289981e-03 2.008778447377099902e-02
2.951492577849512168e-03 3.467285690214999549e-02
3.201619067497775764e-03 2.131293716220999945e-02
3.351694961286733922e-03 1.643646318841000126e-02
3.401720259216386641e-03 6.915066966496000514e-03
3.601821450934997518e-03 3.453947472127999463e-02
3.751897344723956109e-03 4.192088795482999848e-03
3.801922642653608828e-03 1.925134469414299665e-02
4.152099728161178296e-03 2.376434995571000131e-02
4.402226217809441892e-03 1.195069786270500090e-02
4.802428601246663646e-03 1.204861934604900021e-02
4.952504495035621804e-03 3.687488798974999232e-02
5.002529792965274523e-03 1.119433347435999995e-02
5.352706878472843557e-03 1.401691877919999940e-02
5.402732176402496277e-03 1.732639834126399950e-02
6.153111645347287932e-03 1.558407468008900058e-02
6.403238134995551528e-03 5.333313427459999805e-03
6.553314028784509686e-03 4.690825567289000526e-03
6.603339326714162405e-03 2.245350870463299828e-02
6.803440518432773282e-03 1.058974662554999953e-02
6.953516412221731439e-03 1.028811894593400014e-02
7.203642901869995036e-03 1.262935217035399994e-02
7.353718795658954061e-03 9.543644542302999814e-03
7.603845285307217657e-03 7.867965642103999513e-03
8.154123562533397568e-03 8.331115660908099130e-03
8.204148860463051154e-03 6.607831488145000758e-03
8.554325945970619322e-03 4.307955472785200690e-02
8.604351243900272908e-03 1.751486999990999743e-02
8.804452435618883785e-03 1.181214783960200104e-02
8.954528329407841075e-03 1.673479964194980046e-02
9.354730712845062829e-03 9.255146022897399807e-03
9.604857202493327292e-03 8.312657280599999171e-03
9.804958394211938169e-03 2.471149090420000222e-02
1.000505958593054905e-02 1.779039502011999993e-02
1.020516077764915992e-02 1.654612638518600243e-02
1.055533786315672982e-02 1.635227017939000146e-02
1.080546435280499255e-02 2.108403349325110171e-02
1.095554024659395158e-02 1.648983094748799824e-02
1.135574263003117333e-02 4.704453380037000067e-04
1.140576792796082692e-02 8.935836459604000644e-04
1.180597031139804867e-02 1.894934331299999886e-04
1.215614739690561684e-02 3.140223441828000005e-04
1.255634978034283859e-02 1.879715347970700116e-04
1.280647626999110306e-02 5.626588566380000023e-07
1.320667865342832481e-02 2.424932963201999691e-04
1.335675454721728384e-02 1.281498964034000036e-04
1.340677984514693569e-02 9.900913308750000511e-05
1.360688103686554656e-02 1.356127565153999819e-04
1.375695693065450559e-02 1.026411537053000022e-04
1.415715931409172734e-02 2.634948252960000190e-04
1.440728580373999007e-02 1.078722816616999990e-04
1.455736169752894910e-02 7.830604439001999915e-05
1.460738699545860268e-02 7.312351928102999810e-05
1.500758937889582444e-02 2.542050303338000026e-04
1.520769057061443531e-02 0.000000000000000000e+00
1.535776646440339260e-02 4.308500805150000321e-05
1.615817123127783611e-02 5.623411161757399827e-04
1.620819652920749143e-02 5.993120837884000031e-04
1.640829772092610231e-02 5.499209034080000398e-05
1.655837361471505786e-02 7.253073153700000119e-05
1.660839891264471319e-02 2.673458893100299976e-05
1.695857599815227962e-02 2.339684811235000152e-04
1.720870248780054582e-02 2.464630770855999898e-04
1.735877838158950137e-02 1.449344865760000067e-05
1.760890487123776757e-02 1.646913428370000128e-04
1.780900606295637845e-02 5.532846518370000092e-05
1.815918314846394835e-02 2.649668918803099998e-04
1.895958791533839186e-02 7.983089077244900705e-05
1.920971440498665458e-02 1.058266983169999957e-04
1.935979029877561361e-02 2.702761595972600077e-04
1.940981559670526546e-02 1.501316325490000046e-06
1.960991678842387634e-02 1.004097371979999905e-06
1.981001798014248722e-02 5.194658015282399262e-04
2.001011917186109809e-02 6.191046259999999520e-05
2.041032155529831985e-02 1.426506130480500122e-04
2.056039744908727887e-02 2.039908354974999914e-04
2.096059983252450062e-02 2.712732334117000052e-05
2.141082751389137423e-02 2.039190092975999929e-05
2.161092870560998511e-02 2.612865568004899431e-04
2.216120698283616589e-02 0.000000000000000000e+00
2.256140936627338764e-02 1.875359759509823143e-04
2.261143466420304296e-02 1.556387806979999972e-04
2.281153585592165384e-02 2.092156577015100161e-04
2.296161174971060939e-02 3.555619151398999554e-04
2.336181413314783115e-02 1.578566143851700188e-04
2.361194062279609734e-02 1.716944234125999979e-04
2.376201651658505290e-02 5.000199720315999703e-05
2.421224419795192997e-02 1.389492593757999999e-04
2.456242128345949988e-02 8.041942989380000510e-05
2.461244658138915173e-02 3.690784872199999873e-05
2.496262366689672163e-02 1.283849405778999858e-04
2.536282605033394338e-02 6.503023286753000659e-05
2.561295253998220611e-02 1.340585205940000065e-04
2.581305373170081699e-02 1.601484785586999773e-04
2.616323081720838689e-02 8.852683545799999460e-05
2.621325611513803874e-02 8.390280341762000008e-05
2.641335730685664962e-02 2.506042409219000257e-04
2.656343320064560865e-02 3.786413554327549874e-04
2.681355969029387137e-02 1.286913811637000003e-04
2.696363558408283040e-02 2.736349541781000062e-04
2.721376207373109313e-02 4.804259731590000075e-05
2.736383796752005215e-02 4.403421334860000243e-05
2.741386326544970400e-02 3.844908136759999908e-05
2.781406564888692576e-02 4.922802495349999728e-05
2.816424273439449566e-02 6.984051183899999847e-05
2.856444511783171741e-02 2.408514056829999853e-05
2.881457160747998014e-02 2.550660832647000126e-04
2.896464750126893917e-02 2.557178723410999952e-04
2.921477399091720537e-02 3.339179178849999895e-05
2.936484988470616092e-02 9.355472415083999275e-05
2.941487518263581624e-02 3.508155617970000080e-06
3.001517875779164887e-02 1.519792201828000012e-04
3.016525465158060443e-02 3.598714274864320468e-04
3.041538114122887063e-02 2.993794179650000070e-05
3.061548233294748150e-02 2.651927196902599472e-04
3.096565941845505140e-02 1.183152098630999829e-04
3.136586180189226969e-02 3.267468814623000067e-04
3.216626656876671320e-02 0.000000000000000000e+00
3.241639305841498286e-02 1.846108988302599865e-04
3.261649425013359027e-02 3.629681217798999511e-05
3.281659544185220462e-02 8.394074568175999100e-05
3.296667133564115670e-02 2.559311234610000020e-05
3.321679782528942637e-02 9.095954101560000326e-05
3.376707610251560715e-02 2.796104440490000047e-04
3.381710140044525553e-02 6.256431000870000484e-05
3.416727848595282890e-02 6.860447918187000105e-05
3.421730378388247729e-02 1.567248612897999911e-04
3.441740497560109163e-02 1.543464788780000077e-05
3.456748086939005066e-02 1.547043025451000039e-04
3.496768325282727241e-02 1.358525609350000004e-04
3.521780974247553514e-02 8.520248964670000525e-05
3.541791093419414255e-02 1.812035386244999885e-04
3.561801212591275689e-02 5.599555393105999911e-05
3.581811331763136430e-02 1.452876632674000076e-04
3.616829040313893767e-02 2.212231949707399849e-04
3.656849278657615943e-02 4.364878321017000404e-04
3.696869517001338118e-02 7.996625522080000586e-05
3.736889755345060293e-02 1.448776999945399955e-04
3.741892285138025132e-02 1.080861161967100042e-04
3.841942880997330917e-02 9.424027552013000491e-05
3.856950470376226819e-02 1.545032414683700196e-04
3.861953000169192352e-02 2.051687580675000335e-04
3.881963119341053092e-02 2.288064731899999848e-05
3.896970708719948995e-02 3.697129124022300087e-04
3.921983357684775268e-02 6.481104298400000093e-06
3.936990947063671170e-02 1.634725644787000050e-05
3.962003596028497443e-02 2.647979002921600419e-04
4.002023834372219618e-02 4.596798467789999746e-05
4.017031423751115521e-02 1.870415338979999954e-05
4.022033953544081053e-02 2.198437293809400066e-04
4.057051662094837696e-02 7.499087801459999899e-06
4.082064311059663969e-02 1.840926058052000163e-04
4.137092138782282047e-02 1.040717034064199978e-04
4.182114906918969754e-02 2.902540509027000133e-04
4.217132615469726398e-02 8.698882769815001036e-05
4.222135145262691930e-02 6.842087020246000249e-05
4.282165502778274846e-02 1.038998399768799921e-04
4.297173092157170748e-02 0.000000000000000000e+00
4.322185741121997021e-02 1.529060568279499684e-04
4.337193330500892924e-02 2.169298798805100142e-04
4.382216098637580631e-02 3.151870341167000008e-04
4.417233807188337275e-02 7.357023727060000662e-05
4.457254045532059450e-02 3.681563592796800255e-04
4.502276813668747157e-02 1.846247827648000127e-04
4.522286932840608592e-02 1.241919417242999990e-04
4.537294522219503801e-02 1.090121865370999950e-04
4.542297052012469333e-02 7.105701912350000527e-05
4.562307171184330767e-02 1.085600528048299979e-04
4.657355237250671021e-02 1.235008061341999952e-04
4.662357767043635859e-02 5.950354520640000822e-05
4.697375475594393196e-02 7.072926290987000171e-05
4.722388124559219469e-02 5.697594331719999693e-05
4.737395713938115371e-02 1.921001017510000076e-05
4.817436190625559722e-02 3.120185263245199439e-04
4.822438720418524560e-02 8.033301305705999539e-05
4.842448839590385995e-02 7.464021350569999399e-05
4.857456428969281897e-02 6.162592918910000548e-05
4.862458958762246736e-02 2.654190589869700133e-04
4.897476667313004073e-02 1.509906015269999932e-04
4.922489316277830346e-02 2.417480912985600107e-04
4.982519673793413262e-02 1.949861329828999940e-04
5.017537382344170599e-02 2.428154303501600067e-04
5.022539912137135437e-02 6.222990468565000569e-05
5.057557620687892774e-02 2.276289580315999977e-04
5.097577859031614950e-02 6.036914963319999991e-05
