# ort(start) =    -8.1790
#   klo    khi   kmax   step  start
#     4     89     86      1      4

#  Time[fs]            IW_tt                Theta          IW_tt + Theta
     30.000    0.244616204333E-04    0.999793396704E+00    0.999817858325E+00
     40.000    0.716728397844E-04    0.999704930364E+00    0.999776603203E+00
     50.000    0.431197256312E-03    0.999469196343E+00    0.999900393599E+00
     60.000    0.761834636686E-02    0.993313686802E+00    0.100093203317E+01
     70.000    0.350457366791E-01    0.963418819022E+00    0.998464555701E+00
     80.000    0.887870228405E-01    0.905321093564E+00    0.994108116404E+00
     90.000    0.162360707842E+00    0.824909518902E+00    0.987270226744E+00
    100.000    0.233488084711E+00    0.746597826896E+00    0.980085911607E+00
    110.000    0.284763297149E+00    0.693442635442E+00    0.978205932591E+00
    120.000    0.326532677254E+00    0.649986510755E+00    0.976519188009E+00
    130.000    0.367974471974E+00    0.605402341388E+00    0.973376813362E+00
    140.000    0.406707366098E+00    0.564328210097E+00    0.971035576195E+00
    150.000    0.441663749470E+00    0.528713771472E+00    0.970377520942E+00
    160.000    0.474239063383E+00    0.494888327811E+00    0.969127391194E+00
    170.000    0.507896397297E+00    0.461086831284E+00    0.968983228582E+00
    180.000    0.543482328979E+00    0.423548445426E+00    0.967030774406E+00
    190.000    0.576114302991E+00    0.389080444869E+00    0.965194747860E+00
    200.000    0.602683424003E+00    0.361953666884E+00    0.964637090887E+00
    210.000    0.624745971071E+00    0.338655925247E+00    0.963401896318E+00
    220.000    0.644351510922E+00    0.318053259003E+00    0.962404769925E+00
    230.000    0.662955155349E+00    0.298311670210E+00    0.961266825560E+00
    240.000    0.680281968935E+00    0.279973272476E+00    0.960255241411E+00
    250.000    0.696826433689E+00    0.262875062697E+00    0.959701496386E+00
    260.000    0.713921537149E+00    0.244635561847E+00    0.958557098996E+00
    270.000    0.731225222278E+00    0.226473518871E+00    0.957698741148E+00
    280.000    0.746282089375E+00    0.210455407731E+00    0.956737497107E+00
    290.000    0.758647664199E+00    0.197923297716E+00    0.956570961915E+00
    300.000    0.770353292442E+00    0.185489176095E+00    0.955842468536E+00
    310.000    0.781146600434E+00    0.174230690403E+00    0.955377290836E+00
    320.000    0.790822557160E+00    0.164181372123E+00    0.955003929282E+00
    330.000    0.800477637222E+00    0.154064067597E+00    0.954541704819E+00
    340.000    0.809968003042E+00    0.143963626943E+00    0.953931629985E+00
    350.000    0.818604559754E+00    0.134946006613E+00    0.953550566366E+00
    360.000    0.826180948656E+00    0.126848034208E+00    0.953028982864E+00
    370.000    0.833149430662E+00    0.119596945878E+00    0.952746376541E+00
    380.000    0.839957902021E+00    0.112248107515E+00    0.952206009535E+00
    390.000    0.846219889424E+00    0.105514389176E+00    0.951734278600E+00
    400.000    0.851898480254E+00    0.995892357462E-01    0.951487716000E+00
    410.000    0.857619264869E+00    0.933932798470E-01    0.951012544716E+00
    420.000    0.863099471996E+00    0.875287177517E-01    0.950628189748E+00
    430.000    0.867628199036E+00    0.826773790174E-01    0.950305578053E+00
    440.000    0.871345134011E+00    0.787803136303E-01    0.950125447641E+00
    450.000    0.875104009320E+00    0.748579065133E-01    0.949961915833E+00
    460.000    0.879102161503E+00    0.706621398713E-01    0.949764301374E+00
    470.000    0.883163844160E+00    0.664159494269E-01    0.949579793587E+00
    480.000    0.887220512437E+00    0.621392668970E-01    0.949359779334E+00
    490.000    0.890960495700E+00    0.581646819544E-01    0.949125177654E+00
    500.000    0.894249651344E+00    0.547323607098E-01    0.948982012053E+00
    510.000    0.897176125349E+00    0.516817838941E-01    0.948857909243E+00
    520.000    0.899950913683E+00    0.487933485180E-01    0.948744262201E+00
    530.000    0.902789599726E+00    0.458309801318E-01    0.948620579858E+00
    540.000    0.905729051455E+00    0.426863412444E-01    0.948415392699E+00
    550.000    0.908467518955E+00    0.398288283910E-01    0.948296347346E+00
    560.000    0.910805806179E+00    0.374355203561E-01    0.948241326535E+00
    570.000    0.912940945054E+00    0.352378140115E-01    0.948178759065E+00
    580.000    0.914927666865E+00    0.331576132271E-01    0.948085280092E+00
    590.000    0.916774771422E+00    0.312825438228E-01    0.948057315245E+00
    600.000    0.918474462189E+00    0.294585832624E-01    0.947933045452E+00
    610.000    0.919990411884E+00    0.279293160180E-01    0.947919727902E+00
    620.000    0.921479497911E+00    0.263758753677E-01    0.947855373279E+00
    630.000    0.923035283033E+00    0.247863313764E-01    0.947821614409E+00
    640.000    0.924517757075E+00    0.232215870661E-01    0.947739344141E+00
    650.000    0.925830607831E+00    0.219097167751E-01    0.947740324606E+00
    660.000    0.927104842865E+00    0.206004778362E-01    0.947705320701E+00
    670.000    0.928346815869E+00    0.192683777126E-01    0.947615193582E+00
    680.000    0.929341618748E+00    0.182714587894E-01    0.947613077538E+00
    690.000    0.930181522702E+00    0.174042575184E-01    0.947585780221E+00
    700.000    0.931065137201E+00    0.164771166344E-01    0.947542253836E+00
    710.000    0.931999323484E+00    0.154632136481E-01    0.947462537132E+00
    720.000    0.932870379239E+00    0.145626359886E-01    0.947433015228E+00
    730.000    0.933663179915E+00    0.137359413721E-01    0.947399121287E+00
    740.000    0.934450567993E+00    0.129072522929E-01    0.947357820286E+00
    750.000    0.935156265587E+00    0.121756442616E-01    0.947331909849E+00
    760.000    0.935795266179E+00    0.115208539066E-01    0.947316120085E+00
    770.000    0.936439870620E+00    0.108368033978E-01    0.947276674018E+00
    780.000    0.937096353646E+00    0.101554020102E-01    0.947251755656E+00
    790.000    0.937701335858E+00    0.951061040813E-02    0.947211946267E+00
    800.000    0.938223842458E+00    0.898858056911E-02    0.947212423027E+00
    810.000    0.938718777364E+00    0.846483185535E-02    0.947183609219E+00
    820.000    0.939178426895E+00    0.799213633348E-02    0.947170563229E+00
    830.000    0.939624461993E+00    0.752986693498E-02    0.947154328928E+00
    840.000    0.940063455043E+00    0.706634403867E-02    0.947129799082E+00
    850.000    0.940453919586E+00    0.667241577006E-02    0.947126335356E+00
    860.000    0.940819765170E+00    0.628947343107E-02    0.947109238601E+00
    870.000    0.941163402839E+00    0.593691196663E-02    0.947100314806E+00
    880.000    0.941471368632E+00    0.561938806771E-02    0.947090756700E+00
